B:6:9 1 144 9  8.040401e+06  -5.039719e+06  -7.382022e+06  1.732658e+06  -6.026287e+06  2.760497e+06  1.803115e+14
B:6:9 2 288 9  1.429296e+07  4.236034e+06  -6.675203e+06  7.210204e+05  -5.445180e+06  1.645935e+05  4.842863e+13
B:6:9 3 432 9  1.269694e+07  1.682756e+06  -7.843358e+06  5.460986e+05  -4.979721e+06  1.922487e+05  2.523893e+13
B:6:9 4 576 9  1.251893e+07  1.521398e+06  -7.397713e+06  8.938202e+05  -5.123034e+06  6.954312e+05  2.198719e+13
B:6:9 5 720 9  1.092170e+07  3.280771e+06  -6.924804e+06  7.600408e+04  -4.273853e+06  -5.792347e+05  1.581447e+13
B:6:9 6 864 9  1.186575e+07  2.403402e+06  -7.331284e+06  2.710831e+05  -4.738487e+06  -1.302883e+05  1.978670e+13
B:6:9 7 1008 9  1.153492e+07  8.222274e+06  -5.619223e+06  -1.097958e+04  -4.537041e+06  -1.566909e+06  2.518281e+13
B:6:9 8 1152 9  1.214500e+07  4.169839e+06  -7.025354e+06  3.511177e+05  -4.861791e+06  -4.815334e+05  1.906137e+13
B:6:9 9 1296 9  1.380384e+07  1.848219e+06  -7.186202e+06  4.246108e+04  -5.640487e+06  -1.898766e+05  2.911931e+13
B:6:9 10 1440 9  1.181929e+07  6.376274e+06  -6.463979e+06  -1.254397e+05  -4.732094e+06  -1.242835e+06  2.312636e+13
B:6:9 11 1584 9  1.148903e+07  5.511341e+06  -6.848589e+06  6.545788e+04  -4.477327e+06  -9.534338e+05  2.267780e+13
B:6:9 12 1728 9  1.073233e+07  5.378909e+06  -6.467823e+06  -5.472315e+04  -4.359628e+06  -1.011835e+06  1.818652e+13
B:6:9 13 1872 9  1.063968e+07  5.308484e+06  -6.265196e+06  -1.914870e+05  -4.228677e+06  -1.138642e+06  1.742118e+13
B:6:9 14 2016 9  1.278712e+07  1.079493e+06  -7.546737e+06  5.251108e+05  -5.062198e+06  2.598718e+05  2.186815e+13
B:6:9 15 2160 9  1.142401e+07  7.753673e+06  -5.343920e+06  2.851412e+05  -4.737383e+06  -1.104482e+06  2.423798e+13
B:6:9 16 2304 9  1.171149e+07  1.865387e+06  -7.071268e+06  3.487685e+05  -4.788199e+06  -5.843070e+04  1.909033e+13
B:6:9 17 2448 9  1.255670e+07  1.218176e+06  -7.171982e+06  2.782395e+05  -5.067707e+06  6.952009e+04  2.151725e+13
B:6:9 18 2592 9  1.264486e+07  3.367971e+04  -7.367076e+06  6.679128e+05  -4.905314e+06  5.771538e+05  2.224702e+13
B:6:9 19 2736 9  1.144581e+07  4.708239e+05  -7.156623e+06  8.078474e+05  -4.587207e+06  5.695203e+05  1.955239e+13
B:6:9 20 2880 9  1.469879e+07  5.357548e+06  -5.755772e+06  4.966789e+05  -5.881116e+06  -5.267429e+05  4.572355e+13
B:6:9 21 3024 9  1.171879e+07  4.607048e+06  -7.195327e+06  -3.192277e+04  -4.758684e+06  -8.962160e+05  2.065306e+13
B:6:9 22 3168 9  7.590355e+05  5.014130e+05  8.990435e+05  8.252430e+04  5.889629e+05  -7.924722e+04  1.842545e+14
B:6:9 23 3312 9  4.814824e+05  -9.075168e+05  1.794159e+04  -1.122374e+06  -5.540160e+05  -7.505391e+05  2.508716e+14
B:6:9 24 3456 9  1.239453e+07  7.370455e+05  -7.502998e+06  4.946811e+05  -5.099284e+06  3.981741e+05  1.882542e+13
B:6:9 25 3600 9  1.190659e+07  6.236223e+06  -6.663982e+06  -1.595979e+05  -4.689803e+06  -1.264869e+06  2.324029e+13
B:6:9 26 3744 9  1.586113e+07  4.744456e+06  -5.524958e+06  5.224128e+05  -6.266729e+06  -1.992408e+05  5.998703e+13
B:6:9 27 3888 9  -2.736857e+06  -8.847656e+05  -2.707595e+06  -3.068690e+06  -2.966276e+06  -9.333515e+05  2.172683e+14
B:6:9 28 4032 9  1.302386e+06  -5.361625e+04  -3.062975e+04  -4.609855e+05  -3.603902e+05  -9.582207e+05  2.347913e+14
B:6:9 29 4176 9  1.417493e+07  1.279791e+06  -7.093350e+06  4.091212e+05  -5.766051e+06  4.364162e+05  3.378516e+13
B:6:9 30 4320 9  1.332372e+06  4.575053e+05  4.127362e+05  -1.998484e+05  2.255254e+05  -3.858355e+05  2.380294e+14
B:6:9 31 4464 9  1.218467e+07  -1.715184e+05  -7.414196e+06  6.107405e+05  -4.992345e+06  6.204477e+05  1.918464e+13
B:6:9 32 4608 9  1.327972e+07  4.396069e+05  -7.845421e+06  2.307933e+05  -5.330966e+06  1.944223e+05  2.289869e+13
B:6:9 33 4752 9  1.211710e+07  1.388344e+07  -2.486243e+06  8.000086e+05  -4.492872e+06  -2.405187e+06  5.764861e+13
B:6:9 34 4896 9  4.602335e+06  1.332830e+07  2.722312e+06  1.366059e+06  -1.435672e+06  -1.992110e+06  3.776538e+13
B:6:9 35 5040 9  7.454274e+06  1.187387e+07  -1.363841e+06  3.945910e+05  -2.991571e+06  -2.228999e+06  2.485064e+13
B:6:9 36 5184 9  8.151453e+06  1.309244e+07  -4.467467e+05  8.415906e+05  -3.052423e+06  -2.273769e+06  3.775133e+13
B:6:9 37 5328 9  6.711765e+06  1.486397e+07  1.657804e+06  2.222826e+06  -2.354093e+06  -1.671691e+06  4.303165e+13
B:6:9 38 5472 9  7.734342e+06  1.400545e+07  5.592944e+05  1.364399e+06  -2.832669e+06  -2.305084e+06  4.636537e+13
B:6:9 39 5616 9  6.588902e+06  1.255714e+07  2.710342e+05  3.027741e+05  -2.334483e+06  -2.484736e+06  3.120059e+13
B:6:9 40 5760 9  9.860461e+06  1.125175e+07  -3.262182e+06  -1.106420e+05  -3.896778e+06  -2.399166e+06  3.247118e+13
B:6:9 41 5904 9  1.002542e+07  1.363675e+07  -1.969644e+06  6.367034e+05  -3.763982e+06  -2.403773e+06  4.215539e+13
B:6:9 42 6048 9  6.808544e+06  1.159466e+07  -1.229931e+06  -3.463799e+05  -2.592863e+06  -2.569822e+06  2.422181e+13
B:6:9 43 6192 9  9.520889e+06  1.219300e+07  -8.525458e+05  1.582414e+06  -3.708228e+06  -1.549506e+06  4.348802e+13
B:6:9 44 6336 9  6.379974e+06  1.350377e+07  1.591120e+06  1.009246e+06  -2.083199e+06  -2.302119e+06  3.889426e+13
B:6:9 45 6480 9  -2.402017e+04  1.652609e+06  -1.423192e+05  4.301635e+05  1.847374e+05  5.419130e+05  2.633410e+14
B:6:9 46 6624 9  5.596052e+06  1.360831e+07  2.097284e+06  3.314544e+06  -2.130881e+06  -6.119403e+05  3.744198e+13
B:6:9 47 6768 9  7.210890e+06  1.189026e+07  -8.275432e+05  -1.757988e+05  -2.660817e+06  -2.627601e+06  2.744116e+13
B:6:9 48 6912 9  6.243340e+06  1.402425e+07  1.828876e+06  9.484318e+05  -2.276894e+06  -2.666109e+06  4.874796e+13
B:6:9 49 7056 9  6.015450e+06  1.375152e+07  1.646752e+06  1.240857e+06  -1.953212e+06  -2.141761e+06  3.980459e+13
B:6:9 50 7200 9  7.330340e+06  1.124769e+07  -1.909116e+06  4.957186e+04  -2.834091e+06  -2.303779e+06  2.531544e+13
B:6:9 51 7344 9  6.242946e+06  1.278653e+07  7.609476e+05  7.660397e+05  -2.180079e+06  -2.299745e+06  3.345318e+13
B:6:9 52 7488 9  7.540578e+06  1.298763e+07  -4.797799e+05  6.894891e+05  -2.811340e+06  -2.286845e+06  3.095992e+13
B:6:9 53 7632 9  5.395252e+06  1.363986e+07  1.953611e+06  1.712742e+06  -1.723600e+06  -1.879832e+06  3.582257e+13
B:6:9 54 7776 9  4.866962e+06  1.285931e+07  2.372166e+06  1.553719e+06  -1.503366e+06  -1.912830e+06  3.526960e+13
B:6:9 55 7920 9  6.263903e+06  1.263527e+07  6.064717e+05  6.454463e+05  -2.232419e+06  -2.318668e+06  3.117150e+13
B:6:9 56 8064 9  7.883588e+06  1.562681e+07  2.017240e+06  3.054749e+06  -2.007058e+06  -1.545539e+06  6.453758e+13
B:6:9 57 8208 9  8.582753e+06  1.547642e+07  9.064380e+05  2.063446e+06  -2.778735e+06  -2.034039e+06  6.005445e+13
B:6:9 58 8352 9  8.908996e+06  1.014677e+07  -3.176575e+06  -2.133313e+05  -3.648381e+06  -2.208018e+06  2.203718e+13
B:6:9 59 8496 9  7.654682e+06  1.217867e+07  -9.117687e+05  6.639123e+04  -2.887816e+06  -2.617704e+06  2.963165e+13
B:6:9 60 8640 9  1.163883e+05  4.874703e+05  1.038206e+05  5.096233e+05  -1.218304e+05  3.777021e+05  1.222043e+13
B:6:9 61 8784 9  -3.151609e+04  3.353362e+05  -1.300905e+05  1.573919e+05  -1.140468e+05  7.690710e+04  2.374729e+12
B:6:9 62 8928 9  7.622993e+06  1.122334e+07  -1.515012e+06  -1.270746e+05  -2.917887e+06  -2.476153e+06  2.582342e+13
B:6:9 63 9072 9  8.801051e+06  1.179960e+07  -1.321523e+06  1.219543e+06  -3.537582e+06  -1.607499e+06  3.447436e+13
B:6:9 64 9216 9  8.093497e+06  1.152410e+07  -1.523225e+06  6.679068e+05  -3.119138e+06  -1.832648e+06  2.777469e+13
B:6:9 65 9360 9  7.479530e+06  1.215930e+07  4.046947e+05  1.940024e+06  -2.858871e+06  -1.318458e+06  3.793338e+13
B:6:0 66 9504 0  3.251327e+06  1.171931e+07  4.084389e+06  6.037671e+06  2.082135e+06  1.954759e+06  3.868129e+13
B:6:9 67 9648 9  5.575296e+06  1.455363e+07  2.593706e+06  2.155379e+06  -1.632088e+06  -1.766653e+06  4.066439e+13
B:6:9 68 9792 9  9.574083e+06  1.310581e+07  -8.389045e+05  1.573035e+06  -3.487946e+06  -1.781459e+06  4.528486e+13
B:6:9 69 9936 9  3.966001e+06  1.250520e+07  2.696920e+06  1.286223e+06  -1.148497e+06  -1.941946e+06  3.095687e+13
B:6:9 70 10080 9  -1.321295e+06  -6.103188e+04  -1.626227e+06  -1.269567e+06  -7.745130e+05  -8.016397e+05  2.274854e+14
B:6:9 71 10224 9  7.394825e+06  1.273406e+07  -4.848381e+05  1.522815e+05  -2.675018e+06  -2.562733e+06  3.223992e+13
B:6:9 72 10368 9  5.968752e+06  1.292540e+07  8.055580e+05  8.921227e+05  -2.088211e+06  -2.195094e+06  3.060200e+13
B:6:9 73 10512 9  8.774633e+06  1.074525e+07  -2.637822e+06  -9.031076e+04  -3.506498e+06  -2.288580e+06  2.615648e+13
B:6:9 74 10656 9  7.519077e+06  1.372137e+07  7.466850e+05  1.128815e+06  -2.696808e+06  -2.466875e+06  4.550358e+13
B:6:9 75 10800 9  5.836906e+06  1.357527e+07  1.444825e+06  9.288892e+05  -1.966272e+06  -2.267806e+06  3.459279e+13
B:6:9 76 10944 9  8.857057e+06  1.129184e+07  -2.469600e+06  3.242347e+05  -3.485841e+06  -2.118750e+06  2.603608e+13
B:6:9 77 11088 9  5.090813e+06  1.230745e+07  1.633889e+06  6.925582e+05  -1.717865e+06  -2.262131e+06  3.026476e+13
B:6:9 78 11232 9  5.675541e+06  1.292722e+07  1.342004e+06  7.700703e+05  -1.910042e+06  -2.281113e+06  3.287828e+13
B:6:9 79 11376 9  7.812777e+06  1.220092e+07  -1.475428e+06  -5.812277e+04  -2.964518e+06  -2.493648e+06  3.122357e+13
B:6:9 80 11520 9  5.240910e+06  1.250569e+07  1.330339e+06  6.480063e+05  -1.766480e+06  -2.283148e+06  2.930596e+13
B:6:9 81 11664 9  8.576866e+06  1.155937e+07  -1.947734e+06  3.388470e+05  -3.304446e+06  -2.222514e+06  2.798810e+13
B:6:9 82 11808 9  9.745734e+06  1.106031e+07  -3.129352e+06  -7.402992e+03  -3.791771e+06  -2.307193e+06  2.805752e+13
B:6:9 83 11952 9  -3.991303e+06  -2.135936e+06  -3.887275e+06  -8.812246e+05  7.380273e+05  3.271542e+06  2.611413e+14
B:6:9 84 12096 9  6.006349e+06  1.223638e+07  2.615073e+05  3.751867e+05  -2.226966e+06  -2.344392e+06  2.811580e+13
B:6:9 85 12240 9  6.369665e+06  1.245921e+07  4.756272e+05  4.045989e+05  -2.239816e+06  -2.408018e+06  3.035235e+13
B:6:9 86 12384 9  7.819076e+06  1.723872e+07  3.345249e+06  3.937539e+06  -1.829132e+06  -1.179708e+06  7.890035e+13
B:6:9 87 12528 9  6.498697e+06  1.303404e+07  5.066838e+05  5.999566e+05  -2.363265e+06  -2.366649e+06  3.319599e+13
B:6:9 88 12672 9  7.441371e+06  1.223564e+07  -9.328150e+05  5.102466e+05  -2.884849e+06  -2.332185e+06  3.002649e+13
B:6:9 89 12816 9  1.010051e+07  1.284419e+07  -1.347891e+06  1.221382e+06  -3.797705e+06  -2.101256e+06  4.652564e+13
B:6:9 90 12960 9  8.051537e+06  1.377927e+07  -1.689242e+05  2.131787e+06  -3.267846e+06  -1.346846e+06  3.746736e+13
B:6:9 91 13104 9  8.519557e+06  1.160518e+07  -2.188995e+06  2.299589e+05  -3.347541e+06  -2.271244e+06  2.890401e+13
B:6:9 92 13248 9  8.671307e+06  1.067205e+07  -2.624983e+06  -3.744186e+05  -3.366214e+06  -2.428848e+06  3.040090e+13
B:6:9 93 13392 9  6.023326e+06  1.430739e+07  1.964214e+06  9.649150e+05  -2.093704e+06  -2.468191e+06  4.584244e+13
B:6:9 94 13536 9  8.079944e+06  1.366819e+07  -1.460808e+05  6.216467e+05  -3.049112e+06  -2.632341e+06  4.466483e+13
B:6:9 95 13680 9  6.442857e+06  1.193372e+07  -6.146235e+05  -1.395083e+04  -2.425977e+06  -2.545192e+06  2.552899e+13
B:6:9 96 13824 9  9.737310e+06  1.321979e+07  -8.645802e+05  1.745981e+06  -3.230813e+06  -1.883627e+06  4.965162e+13
B:6:9 97 13968 9  6.603888e+06  1.495308e+07  2.163945e+06  3.101376e+06  -2.132141e+06  -1.162236e+06  4.766726e+13
B:6:9 98 14112 9  6.242236e+06  1.428151e+07  1.765694e+06  1.627582e+06  -2.068765e+06  -2.116411e+06  4.195919e+13
B:6:9 99 14256 9  5.722255e+06  1.268786e+07  8.582604e+05  8.929048e+05  -2.099293e+06  -2.163481e+06  2.880462e+13
B:6:9 100 14400 9  4.414747e+06  1.287204e+07  2.609167e+06  3.020015e+06  -1.513449e+06  -8.308801e+05  3.184280e+13
B:6:9 101 14544 9  5.853697e+06  1.365918e+07  1.568371e+06  9.983522e+05  -2.002197e+06  -2.294448e+06  3.913290e+13
B:6:9 102 14688 9  6.894114e+06  1.605929e+07  2.887400e+06  3.249951e+06  -1.866504e+06  -1.402408e+06  6.238801e+13
B:6:9 103 14832 9  6.502845e+06  1.471297e+07  2.250441e+06  2.407550e+06  -1.922490e+06  -1.778250e+06  5.064417e+13
B:6:9 104 14976 9  5.822807e+06  1.349688e+07  1.986847e+06  1.264106e+06  -1.824909e+06  -2.163492e+06  3.660871e+13
B:6:9 105 15120 9  5.895548e+06  1.436785e+07  2.118956e+06  1.451200e+06  -1.884448e+06  -2.147146e+06  4.088300e+13
B:6:9 106 15264 9  6.074999e+06  1.259597e+07  2.442711e+05  3.395636e+05  -2.364641e+06  -2.457452e+06  2.848301e+13
B:6:9 107 15408 9  5.603177e+06  1.313346e+07  1.669002e+06  8.301636e+05  -1.913383e+06  -2.306369e+06  3.441165e+13
B:6:9 108 15552 9  6.945301e+06  1.334100e+07  1.783696e+05  3.962726e+05  -2.468803e+06  -2.578052e+06  3.400182e+13
B:6:9 109 15696 9  7.327523e+06  1.411488e+07  9.717659e+05  2.133174e+06  -2.607122e+06  -1.666258e+06  4.322814e+13
B:6:9 110 15840 9  7.572860e+06  1.367554e+07  7.796406e+05  2.238078e+06  -2.636071e+06  -1.559228e+06  4.291983e+13
B:6:9 111 15984 9  6.774979e+06  1.458250e+07  2.122026e+06  2.593174e+06  -2.071609e+06  -1.547699e+06  4.916202e+13
B:6:9 112 16128 9  1.011159e+07  1.616887e+07  1.147190e+06  3.535346e+06  -3.263741e+06  -1.134958e+06  7.128031e+13
B:6:9 113 16272 9  -1.695320e+05  -4.200020e+04  -6.442784e+04  2.151792e+04  2.095077e+04  1.700980e+04  2.045885e+12
B:6:9 114 16416 9  9.663910e+06  1.298357e+07  -1.345081e+06  1.144090e+06  -3.672107e+06  -2.036024e+06  4.397921e+13
B:6:9 115 16560 9  6.274578e+06  1.293926e+07  6.183431e+05  2.141249e+05  -2.266206e+06  -2.622511e+06  3.445426e+13
B:6:9 116 16704 9  1.009466e+07  1.489374e+07  -6.736567e+05  1.474079e+06  -3.624239e+06  -2.182338e+06  5.749354e+13
B:6:9 117 16848 9  5.406647e+06  1.267773e+07  2.020359e+06  2.956777e+06  -2.038714e+06  -7.624015e+05  3.528618e+13
B:6:9 118 16992 9  6.135255e+06  1.386568e+07  2.099798e+06  1.621142e+06  -1.888440e+06  -2.065444e+06  4.076885e+13
B:6:9 119 17136 9  -1.510378e+06  -8.688307e+05  7.769961e+04  -5.734335e+05  -2.789312e+05  -1.261223e+06  3.147255e+14
B:6:9 120 17280 9  5.188379e+06  1.411108e+07  2.484574e+06  1.492041e+06  -1.612250e+06  -2.085896e+06  3.994954e+13
B:6:9 121 17424 9  5.150518e+06  1.372754e+07  2.368605e+06  1.508069e+06  -1.611005e+06  -2.142072e+06  3.901014e+13
B:6:9 122 17568 9  9.327631e+06  1.030471e+07  -3.690480e+06  -5.441719e+05  -3.621854e+06  -2.423610e+06  2.528665e+13
B:6:9 123 17712 9  9.932978e+06  1.169150e+07  -3.554203e+06  -2.539421e+05  -3.745924e+06  -2.513464e+06  3.344920e+13
B:6:9 124 17856 9  5.055574e+06  1.377442e+07  2.489527e+06  1.181473e+06  -1.494445e+06  -2.190671e+06  3.882371e+13
B:6:9 125 18000 9  9.166747e+06  1.473496e+07  7.235778e+05  2.567703e+06  -2.986457e+06  -1.542336e+06  5.721522e+13
R: 6B:6:9 126 18144 9  -2.706775e+05  -1.621222e+05  -2.851263e+05  -4.276179e+05  -2.857337e+05  -3.559347e+05  2.778779e+12
B:6:9 127 18288 9  6.240440e+06  1.446007e+07  1.692004e+06  1.604311e+06  -2.045283e+06  -2.092887e+06  3.878954e+13
B:6:9 128 18432 9  5.443584e+06  1.321345e+07  1.739863e+06  9.847180e+05  -1.813492e+06  -2.249478e+06  3.350592e+13
B:6:9 129 18576 9  7.884982e+06  1.109903e+07  -2.204329e+06  -3.216065e+05  -3.062896e+06  -2.457427e+06  2.360424e+13
B:6:9 130 18720 9  6.809029e+06  1.329009e+07  5.821996e+05  6.072915e+05  -2.407916e+06  -2.491482e+06  3.591536e+13
B:6:9 131 18864 9  5.147920e+06  1.379741e+07  2.449107e+06  1.146816e+06  -1.547926e+06  -2.229999e+06  3.961617e+13
B:6:9 132 19008 9  4.478303e+06  1.307662e+07  2.641926e+06  1.259968e+06  -1.391155e+06  -2.031535e+06  3.678267e+13
B:6:9 133 19152 9  6.136717e+06  1.379173e+07  2.561272e+06  3.049169e+06  -1.798515e+06  -1.003588e+06  4.499426e+13
B:6:9 134 19296 9  6.880745e+06  1.311939e+07  3.375061e+05  5.775004e+05  -2.478836e+06  -2.389688e+06  3.515782e+13
B:6:9 135 19440 9  8.154285e+06  1.241202e+07  -1.092169e+06  1.319803e+06  -3.427548e+06  -1.680407e+06  3.251933e+13
B:6:9 136 19584 9  8.907802e+06  1.041258e+07  -2.430728e+06  4.563607e+05  -3.699098e+06  -1.795580e+06  2.676861e+13
B:6:9 137 19728 9  6.525798e+06  1.247595e+07  -1.017679e+05  3.806254e+05  -2.507029e+06  -2.447543e+06  2.798481e+13
B:6:9 138 19872 9  5.483707e+06  1.304368e+07  1.702912e+06  6.384809e+05  -1.868434e+06  -2.438952e+06  3.540255e+13
B:6:9 139 20016 9  7.336802e+06  1.258699e+07  -6.528081e+05  2.931869e+05  -2.893487e+06  -2.486309e+06  3.099910e+13
B:6:9 140 20160 9  8.867691e+06  1.077775e+07  -2.520665e+06  5.393841e+05  -3.656683e+06  -1.736607e+06  2.669787e+13
B:6:9 141 20304 9  7.934179e+06  1.223610e+07  -1.144392e+06  1.001978e+05  -2.978750e+06  -2.583338e+06  3.153319e+13
B:6:9 142 20448 9  9.234582e+06  1.352170e+07  6.905917e+05  2.725046e+06  -3.458096e+06  -9.965442e+05  5.733140e+13
B:6:9 143 20592 9  5.208841e+06  1.262485e+07  1.385471e+06  7.324034e+05  -1.859551e+06  -2.260375e+06  3.003047e+13
B:6:9 144 20736 9  6.154823e+06  1.266266e+07  1.015869e+06  4.831572e+05  -2.195413e+06  -2.487143e+06  3.256015e+13
B:6:9 145 20880 9  8.590236e+06  1.181621e+07  -1.930147e+06  -9.303578e+03  -3.318683e+06  -2.471011e+06  3.358118e+13
B:6:9 146 21024 9  7.756304e+06  1.551888e+07  1.595077e+06  2.110616e+06  -2.456943e+06  -1.989780e+06  5.577482e+13
B:6:9 147 21168 9  1.136387e+07  1.324823e+07  -2.017319e+06  1.657931e+06  -4.220640e+06  -1.780949e+06  5.281986e+13
B:6:9 148 21312 9  1.005063e+07  1.141057e+07  -2.491726e+06  2.015489e+05  -3.978001e+06  -2.483956e+06  3.516783e+13
B:6:9 149 21456 9  7.885677e+06  1.298624e+07  -8.031487e+05  5.216272e+05  -3.002852e+06  -2.374640e+06  3.231205e+13
B:6:9 150 21600 9  8.792398e+06  1.191570e+07  -2.079942e+06  1.580977e+05  -3.409789e+06  -2.395257e+06  3.102774e+13
B:6:9 151 21744 9  9.973956e+06  1.219115e+07  -2.787219e+06  4.829783e+05  -3.874585e+06  -2.285059e+06  3.699980e+13
B:6:9 152 21888 9  7.673016e+06  1.149079e+07  -1.684519e+06  -1.293270e+05  -2.971008e+06  -2.466230e+06  2.628789e+13
B:6:9 153 22032 9  7.265370e+06  1.412880e+07  6.486631e+05  1.674555e+06  -2.646548e+06  -1.912082e+06  4.105545e+13
B:6:9 154 22176 9  5.363151e+06  1.370883e+07  2.294035e+06  1.380334e+06  -1.676392e+06  -2.095138e+06  3.758837e+13
B:6:9 155 22320 9  5.689642e+06  1.284121e+07  1.456128e+06  9.478664e+05  -1.888130e+06  -2.212510e+06  3.217136e+13
B:6:9 156 22464 9  5.454532e+06  1.307442e+07  1.946786e+06  1.486817e+06  -1.774968e+06  -1.949807e+06  3.542899e+13
B:6:9 157 22608 9  9.029076e+06  1.235798e+07  -1.882710e+06  4.453509e+05  -3.473144e+06  -2.253571e+06  3.278186e+13
B:6:9 158 22752 9  5.250236e+06  1.197231e+07  7.881282e+05  2.094192e+05  -1.889111e+06  -2.404509e+06  2.652720e+13
B:6:9 159 22896 9  7.823523e+06  1.172179e+07  -1.890543e+06  4.379075e+05  -3.217338e+06  -2.107866e+06  2.510576e+13
B:6:9 160 23040 9  -3.376713e+05  -1.535662e+05  -3.562546e+05  -2.239570e+05  -2.456714e+05  -1.942666e+05  4.391212e+12
B:6:9 161 23184 9  7.412313e+06  1.030836e+07  -2.390133e+06  -2.814485e+05  -2.961782e+06  -2.258877e+06  2.112526e+13
B:6:9 162 23328 9  7.813870e+06  1.201254e+07  -1.019237e+06  3.009702e+05  -3.081645e+06  -2.446072e+06  3.071252e+13
B:6:9 163 23472 9  4.928225e+06  1.341373e+07  2.830403e+06  2.214248e+06  -1.330281e+06  -1.513011e+06  3.778106e+13
B:6:9 164 23616 9  1.563409e+07  -1.486637e+06  -5.683799e+06  -4.674201e+05  -5.787441e+06  6.662456e+05  5.925767e+13
B:6:9 165 23760 9  7.889443e+06  1.394798e+07  6.637164e+05  1.845409e+06  -2.619832e+06  -1.869150e+06  4.641538e+13
B:6:9 166 23904 9  4.816978e+06  1.283134e+07  2.481896e+06  1.450587e+06  -1.459012e+06  -1.917209e+06  3.473713e+13
B:6:9 167 24048 9  5.979126e+06  1.286402e+07  6.074064e+05  1.122486e+06  -2.263502e+06  -2.055882e+06  3.165305e+13
B:6:9 168 24192 9  8.326207e+06  1.190319e+07  -2.038266e+06  1.019723e+04  -3.213808e+06  -2.399961e+06  2.744898e+13
B:6:9 169 24336 9  7.382362e+06  1.213776e+07  -8.374468e+05  1.638469e+05  -2.723140e+06  -2.450447e+06  3.036602e+13
B:6:9 170 24480 9  1.002735e+07  1.089351e+07  -3.118269e+06  1.306784e+04  -4.021396e+06  -2.410342e+06  3.116077e+13
B:6:9 171 24624 9  8.521193e+06  1.280292e+07  -1.040555e+06  8.507761e+05  -3.136919e+06  -2.173551e+06  3.475983e+13
B:6:9 172 24768 9  -3.229634e+05  -2.226342e+05  -4.086515e+05  -2.418191e+05  -3.492344e+05  -2.236306e+05  2.866827e+12
B:6:9 173 24912 9  -5.991668e+05  3.832554e+05  -7.472403e+04  2.814845e+05  7.794264e+04  2.948013e+05  7.963234e+12
B:6:9 174 25056 9  7.035659e+06  1.173216e+07  -8.607761e+05  -4.096117e+05  -2.680712e+06  -2.790939e+06  2.917518e+13
B:6:9 175 25200 9  7.442380e+06  1.306828e+07  -4.964914e+05  3.900565e+05  -2.693062e+06  -2.460034e+06  3.527572e+13
B:6:9 176 25344 9  5.524470e+06  1.303246e+07  1.471151e+06  7.169062e+05  -1.849156e+06  -2.394964e+06  3.215977e+13
B:6:9 177 25488 9  5.743792e+06  1.304038e+07  2.145806e+06  2.690776e+06  -1.847080e+06  -1.114943e+06  3.875343e+13
B:6:9 178 25632 9  9.496651e+06  1.101500e+07  -2.524899e+06  2.063658e+05  -3.764756e+06  -2.007201e+06  2.989981e+13
B:6:9 179 25776 9  5.403029e+06  1.398799e+07  2.523199e+06  1.690627e+06  -1.644803e+06  -1.947360e+06  3.845773e+13
B:6:9 180 25920 9  5.928932e+06  1.323685e+07  1.384788e+06  1.189682e+06  -2.056427e+06  -2.107373e+06  3.307034e+13
B:6:9 181 26064 9  5.220020e+06  1.242748e+07  1.524891e+06  8.713889e+05  -1.682943e+06  -2.201712e+06  2.918762e+13
B:6:9 182 26208 9  4.600247e+06  1.275299e+07  2.647232e+06  1.148114e+06  -1.391859e+06  -2.077869e+06  3.609962e+13
B:6:9 183 26352 9  7.986484e+06  1.167962e+07  -1.818640e+06  -2.899143e+05  -3.007159e+06  -2.581786e+06  2.893845e+13
B:6:9 184 26496 9  5.080334e+06  1.233899e+07  1.292677e+06  7.951246e+05  -1.758639e+06  -2.149637e+06  2.864593e+13
B:6:9 185 26640 9  8.893837e+06  1.109060e+07  -2.297940e+06  2.911877e+05  -3.593948e+06  -2.122479e+06  2.742302e+13
B:6:9 186 26784 9  6.412887e+06  1.319838e+07  1.248964e+06  1.362593e+06  -2.193952e+06  -2.017401e+06  3.665845e+13
B:6:9 187 26928 9  9.402416e+06  1.089131e+07  -2.682829e+06  1.490193e+05  -3.568391e+06  -2.106509e+06  2.778640e+13
B:6:9 188 27072 9  8.143630e+06  1.073762e+07  -2.243774e+06  -1.803793e+04  -3.096857e+06  -2.273875e+06  2.366633e+13
B:6:9 189 27216 9  6.967592e+06  1.280007e+07  7.536961e+05  5.768188e+05  -2.394090e+06  -2.562862e+06  3.964757e+13
B:6:9 190 27360 9  4.872998e+06  1.284161e+07  2.037597e+06  9.751776e+05  -1.688304e+06  -2.170960e+06  3.379420e+13
B:6:9 191 27504 9  3.770525e+06  1.287216e+07  3.545499e+06  1.410496e+06  -1.071704e+06  -1.866450e+06  3.845933e+13
B:6:9 192 27648 9  8.055721e+06  1.387488e+07  1.756027e+06  3.570750e+06  -2.317746e+06  -6.887166e+05  5.834692e+13
B:6:9 193 27792 9  5.922519e+06  1.244093e+07  1.136902e+06  1.144102e+06  -2.052343e+06  -2.008359e+06  3.086094e+13
B:6:9 194 27936 9  1.048327e+07  1.018037e+07  -2.282524e+06  9.990116e+05  -4.326743e+06  -1.325397e+06  3.754478e+13
B:6:9 195 28080 9  5.620920e+06  1.349644e+07  2.088450e+06  1.559428e+06  -1.655442e+06  -1.908811e+06  3.641966e+13
B:6:9 196 28224 9  8.575843e+06  1.466273e+07  1.325393e+06  2.900972e+06  -2.544780e+06  -1.292524e+06  5.867410e+13
B:6:9 197 28368 9  7.390122e+06  1.157772e+07  -8.850412e+05  -8.158406e+04  -2.823408e+06  -2.594721e+06  3.082582e+13
B:6:9 198 28512 9  8.048428e+06  1.311324e+07  -6.289549e+05  3.276212e+05  -2.932874e+06  -2.605690e+06  3.887980e+13
B:6:9 199 28656 9  7.291569e+06  1.211703e+07  -7.195392e+05  1.253525e+06  -3.008430e+06  -1.650957e+06  2.806062e+13
B:6:9 200 28800 9  1.111439e+07  1.196833e+07  -2.189520e+06  1.270125e+06  -4.060508e+06  -1.854817e+06  4.572141e+13
B:6:9 201 28944 9  6.089306e+06  1.346374e+07  2.123659e+06  1.976065e+06  -1.825409e+06  -1.697603e+06  3.982412e+13
B:6:9 202 29088 9  5.656921e+06  1.313304e+07  1.909972e+06  1.421316e+06  -1.791416e+06  -1.888360e+06  3.541897e+13
B:6:9 203 29232 9  7.903406e+06  1.131422e+07  -1.402812e+06  2.464426e+05  -2.979311e+06  -2.184569e+06  2.669713e+13
B:6:9 204 29376 9  4.190432e+05  -2.372341e+05  2.933652e+05  -2.334418e+05  1.569016e+05  -1.414772e+05  3.782040e+11
B:6:9 205 29520 9  4.532795e+04  -1.663112e+05  4.103368e+04  -5.258640e+04  -2.633235e+04  2.106219e+04  1.415997e+12
B:6:9 206 29664 9  6.518785e+06  1.287781e+07  7.954839e+05  7.400216e+05  -2.167111e+06  -2.235930e+06  3.598674e+13
B:6:9 207 29808 9  5.898028e+06  1.195644e+07  4.484213e+05  1.215118e+06  -2.323442e+06  -1.765102e+06  2.812047e+13
B:6:9 208 29952 9  7.424272e+06  1.412359e+07  2.091960e+06  2.978318e+06  -2.067067e+06  -1.236885e+06  5.289602e+13
B:6:9 209 30096 9  -7.118377e+05  -2.444910e+05  -1.940866e+05  9.190009e+04  -1.963918e+04  1.224053e+05  2.988029e+12
B:6:9 210 30240 9  8.746877e+06  1.129499e+07  -2.124063e+06  1.789812e+05  -3.339235e+06  -2.208001e+06  2.835675e+13
B:6:9 211 30384 9  7.771614e+06  1.044698e+07  -2.149722e+06  -1.432694e+05  -3.081705e+06  -2.268697e+06  2.450068e+13
B:6:9 212 30528 9  4.014686e+04  3.152740e+04  1.315989e+04  1.008914e+05  -4.771078e+03  1.100611e+05  1.309833e+12
B:6:9 213 30672 9  8.070900e+06  1.155757e+07  -1.730781e+06  9.563494e+04  -3.076119e+06  -2.380096e+06  2.960059e+13
B:6:9 214 30816 9  9.687562e+06  1.146647e+07  -2.290851e+06  8.487247e+05  -3.922434e+06  -1.771776e+06  3.630155e+13
B:6:9 215 30960 9  -1.412590e+06  1.315698e+05  -1.538159e+06  1.481538e+06  -7.742606e+05  6.382879e+05  2.466549e+14
B:6:9 216 31104 9  9.269099e+06  1.248092e+07  -7.114402e+05  1.301731e+06  -3.221126e+06  -2.002083e+06  4.433361e+13
B:6:9 217 31248 9  8.819660e+06  1.141182e+07  -2.115365e+06  5.541903e+05  -3.566875e+06  -1.911525e+06  2.900759e+13
B:6:9 218 31392 9  6.645901e+05  6.248482e+04  1.330045e+05  2.039524e+05  -6.191489e+04  2.685230e+05  6.291438e+11
B:6:9 219 31536 9  7.470776e+06  1.036557e+07  -2.038817e+06  -2.369044e+05  -2.928910e+06  -2.343703e+06  2.063398e+13
B:6:9 220 31680 9  7.893627e+06  9.892180e+06  -2.915876e+06  -4.798018e+05  -3.107941e+06  -2.399049e+06  2.166951e+13
B:6:9 221 31824 9  9.324654e+06  1.097110e+07  -2.994861e+06  -1.624172e+05  -3.628683e+06  -2.393689e+06  2.836206e+13
B:6:9 222 31968 9  -1.616773e+06  -2.690685e+05  -2.106557e+06  2.128744e+03  -6.377644e+05  -7.050840e+05  2.119486e+14
B:6:9 223 32112 9  6.146458e+05  4.907337e+05  1.035837e+06  2.292892e+05  6.496018e+05  -1.600820e+04  1.603361e+14
B:6:9 224 32256 9  8.648264e+05  5.640750e+04  4.039568e+05  -2.344827e+03  1.434054e+05  6.468532e+04  1.525963e+12
B:6:9 225 32400 9  8.459925e+06  1.018542e+07  -3.220093e+06  -4.013308e+05  -3.345201e+06  -2.266033e+06  2.116586e+13
B:6:9 226 32544 9  -4.476962e+04  -1.901620e+05  -4.528500e+04  -1.984035e+05  1.340844e+05  -2.376774e+05  8.522267e+11
B:6:9 227 32688 9  -4.021448e+06  -1.793946e+06  -9.284421e+05  4.288442e+06  4.486405e+06  6.313917e+06  1.329530e+14
B:6:9 228 32832 9  -2.826903e+06  -9.954858e+05  -3.050660e+06  -1.363484e+06  -2.557519e+06  -2.086225e+06  3.654371e+14
B:6:9 229 32976 9  7.079911e+06  1.288662e+07  -1.105419e+05  2.454658e+05  -2.596512e+06  -2.575020e+06  3.548232e+13
B:6:9 230 33120 9  -2.452788e+06  -7.119782e+05  -1.871528e+06  -2.035211e+06  -3.387115e+06  -1.690128e+06  2.055246e+14
B:6:9 231 33264 9  9.064986e+06  1.188270e+07  -9.512455e+05  -1.634570e+05  -3.414994e+06  -2.661744e+06  3.963961e+13
B:6:9 232 33408 9  -1.586902e+06  1.246611e+05  -5.382136e+05  -1.144717e+06  -7.691234e+05  -1.061281e+06  2.374624e+14
B:6:9 233 33552 9  -1.288225e+06  1.316397e+05  -9.225806e+05  1.918152e+06  -6.335928e+05  1.347290e+06  2.340260e+14
B:6:9 234 33696 9  7.541971e+06  1.267829e+07  -5.731971e+05  1.332166e+06  -2.960528e+06  -1.814407e+06  3.219630e+13
B:6:9 235 33840 9  8.857323e+06  1.172263e+07  -1.959536e+06  -2.175407e+04  -3.367390e+06  -2.523968e+06  3.252585e+13
B:6:9 236 33984 9  7.943254e+06  1.267987e+07  -8.512896e+05  1.841023e+05  -2.862189e+06  -2.498957e+06  3.203230e+13
B:6:9 237 34128 9  4.690038e+06  1.371856e+07  2.719141e+06  2.577545e+06  -1.436019e+06  -1.288235e+06  3.500916e+13
B:6:9 238 34272 9  5.088502e+06  1.292970e+07  2.415980e+06  1.798207e+06  -1.562796e+06  -1.668620e+06  3.484946e+13
B:6:9 239 34416 9  6.222146e+06  1.286156e+07  1.088661e+06  1.038604e+06  -2.146587e+06  -2.093922e+06  3.319799e+13
B:6:9 240 34560 9  7.700312e+06  1.488725e+07  1.366932e+06  2.209549e+06  -2.488304e+06  -1.744276e+06  4.946346e+13
B:6:9 241 34704 9  8.579285e+06  9.881788e+06  -3.493785e+06  -3.850387e+05  -3.355406e+06  -2.204228e+06  2.188784e+13
B:6:9 242 34848 9  6.279675e+06  1.237282e+07  4.737361e+05  3.514975e+05  -2.293371e+06  -2.475347e+06  3.186123e+13
B:6:9 243 34992 9  5.033249e+06  1.312687e+07  1.939669e+06  1.030843e+06  -1.661622e+06  -2.137676e+06  3.357995e+13
B:6:9 244 35136 9  8.424068e+06  1.157851e+07  -2.280809e+06  -1.904095e+05  -3.169475e+06  -2.470898e+06  2.635551e+13
B:6:9 245 35280 9  -1.685862e+06  -3.690867e+05  1.064247e+05  -7.619045e+05  -5.643825e+05  -1.098393e+06  2.183762e+14
B:6:9 246 35424 9  6.419024e+06  1.328678e+07  1.231212e+06  1.413525e+06  -2.184220e+06  -2.008152e+06  3.714562e+13
B:6:9 247 35568 9  6.305253e+06  1.345615e+07  1.134845e+06  7.785976e+05  -2.154382e+06  -2.417621e+06  3.585234e+13
B:6:9 248 35712 9  6.605275e+06  1.376668e+07  1.123879e+06  1.129819e+06  -2.267025e+06  -2.259999e+06  3.721164e+13
B:6:9 249 35856 9  4.871144e+06  1.235282e+07  1.518300e+06  6.581176e+05  -1.676379e+06  -2.219686e+06  3.077086e+13
R: 6 9 3B:6:9 250 36000 9  4.962554e+06  1.275856e+07  1.941384e+06  6.936822e+05  -1.637405e+06  -2.325731e+06  3.530048e+13
B:6:9 251 36144 9  8.295353e+06  1.477695e+07  5.914337e+05  1.100592e+06  -2.972600e+06  -2.618030e+06  5.377826e+13
B:6:9 252 36288 9  5.234907e+06  1.294617e+07  1.620730e+06  7.474502e+05  -1.776312e+06  -2.317422e+06  3.241899e+13
B:6:9 253 36432 9  6.498266e+06  1.255540e+07  1.926375e+05  5.804732e+05  -2.345784e+06  -2.387663e+06  2.859728e+13
B:6:9 254 36576 9  6.527406e+06  1.312258e+07  1.041955e+06  1.326652e+06  -2.458166e+06  -1.792840e+06  3.444915e+13
B:6:9 255 36720 9  1.086105e+07  1.342281e+07  -1.962667e+06  1.773818e+06  -4.343293e+06  -1.445304e+06  4.623708e+13
B:6:9 256 36864 9  5.868139e+06  1.320976e+07  9.174503e+05  7.012057e+05  -2.028160e+06  -2.393126e+06  3.407474e+13
B:6:9 257 37008 9  1.281523e+06  -8.409621e+05  -4.992837e+05  -1.059586e+06  -7.857435e+05  -9.039288e+05  2.199380e+14
B:6:9 258 37152 9  -1.252764e+05  -6.803788e+04  -2.627816e+05  -1.111743e+05  -2.275430e+05  -1.824634e+05  3.365305e+12
B:6:9 259 37296 9  8.657974e+06  1.279516e+07  -1.741594e+06  1.986638e+04  -3.125690e+06  -2.650654e+06  3.127554e+13
B:6:9 260 37440 9  8.887258e+06  1.039336e+07  -3.215897e+06  -3.380980e+05  -3.595666e+06  -2.379822e+06  2.550973e+13
B:6:9 261 37584 9  6.696016e+06  1.219191e+07  -9.091793e+04  4.387232e+04  -2.500581e+06  -2.552228e+06  2.921134e+13
B:6:9 262 37728 9  1.025498e+06  -1.161510e+06  -1.224131e+04  -9.601513e+05  -6.713829e+05  -9.175298e+05  3.104947e+14
B:6:9 263 37872 9  9.023010e+06  1.196967e+07  -2.515945e+06  -7.863960e+03  -3.530883e+06  -2.502157e+06  3.012637e+13
B:6:9 264 38016 9  6.809329e+06  1.175021e+07  -1.039208e+06  -1.099794e+05  -2.611234e+06  -2.581119e+06  2.456873e+13
B:6:9 265 38160 9  5.945826e+06  1.272911e+07  8.172571e+05  3.595441e+05  -2.142118e+06  -2.469570e+06  3.428792e+13
B:6:9 266 38304 9  5.909016e+06  1.372133e+07  1.817425e+06  1.208337e+06  -1.934456e+06  -2.222705e+06  3.823286e+13
B:6:9 267 38448 9  8.653633e+06  1.443635e+07  8.992891e+05  2.315246e+06  -2.855823e+06  -1.636300e+06  5.348538e+13
B:6:9 268 38592 9  5.451783e+06  1.208494e+07  8.585238e+05  3.185259e+05  -1.982848e+06  -2.377996e+06  2.599171e+13
B:6:9 269 38736 9  5.880493e+06  1.319137e+07  1.642319e+06  1.032563e+06  -2.000236e+06  -2.232454e+06  3.639591e+13
B:6:9 270 38880 9  5.351425e+06  1.391286e+07  2.593667e+06  1.323872e+06  -1.644272e+06  -2.158097e+06  4.201541e+13
B:6:9 271 39024 9  7.372655e+06  1.251556e+07  -9.479178e+05  9.433861e+04  -2.851959e+06  -2.635347e+06  2.942487e+13
B:6:9 272 39168 9  1.043333e+07  1.280055e+07  -1.827277e+06  7.285597e+05  -3.852945e+06  -2.353963e+06  4.574792e+13
B:6:9 273 39312 9  4.086400e+05  1.455301e+05  2.491410e+05  1.862121e+05  2.574215e+05  7.140265e+04  2.738092e+13
B:6:9 274 39456 9  8.164986e+06  1.264294e+07  -1.016595e+06  2.140913e+05  -3.019187e+06  -2.505428e+06  3.410399e+13
B:6:9 275 39600 9  5.786822e+06  1.340063e+07  1.735660e+06  1.508667e+06  -1.881494e+06  -1.953355e+06  3.535676e+13
B:6:9 276 39744 9  6.420496e+06  1.252778e+07  3.614525e+05  5.244894e+05  -2.322125e+06  -2.435542e+06  3.149653e+13
B:6:9 277 39888 9  6.579852e+06  1.305666e+07  8.059076e+05  6.217125e+05  -2.394568e+06  -2.487005e+06  3.484706e+13
B:6:9 278 40032 9  7.856939e+06  1.224941e+07  -1.325082e+06  1.034654e+05  -2.970359e+06  -2.459407e+06  3.239898e+13
B:6:9 279 40176 9  5.716305e+06  1.210649e+07  3.612180e+05  5.618160e+04  -2.080459e+06  -2.542880e+06  2.864107e+13
B:6:9 280 40320 9  7.624168e+05  -7.684866e+04  5.812869e+05  4.277076e+05  6.926675e+05  7.126581e+05  5.901832e+13
B:6:9 281 40464 9  9.597152e+06  1.428928e+07  -5.710752e+05  1.331889e+06  -3.487203e+06  -2.290287e+06  5.310206e+13
B:6:9 282 40608 9  6.338648e+04  -6.207142e+04  3.949247e+04  -5.928471e+04  7.639721e+03  -7.706046e+04  1.436790e+12
B:6:9 283 40752 9  8.458962e+06  1.126622e+07  -2.143333e+06  8.246286e+04  -3.390013e+06  -2.355989e+06  2.752721e+13
B:6:9 284 40896 9  1.209645e+07  1.161006e+07  -3.004418e+06  1.031479e+06  -4.642852e+06  -1.826371e+06  4.632535e+13
B:6:9 285 41040 9  8.733201e+06  1.156274e+07  -2.446469e+06  -7.316057e+04  -3.318854e+06  -2.440756e+06  2.831187e+13
B:6:9 286 41184 9  6.487743e+06  1.382813e+07  1.634686e+06  2.011846e+06  -2.040688e+06  -1.720154e+06  4.331512e+13
B:6:9 287 41328 9  6.198539e+06  1.160673e+07  -1.259000e+05  4.904498e+04  -2.374139e+06  -2.484759e+06  2.682235e+13
B:6:9 288 41472 9  7.648235e+06  1.227205e+07  -1.064483e+06  2.236495e+05  -3.032770e+06  -2.465571e+06  3.199901e+13
B:6:9 289 41616 9  9.478585e+06  1.175625e+07  -2.633458e+06  4.148053e+04  -3.601976e+06  -2.352233e+06  3.155169e+13
B:6:9 290 41760 9  8.805787e+06  1.127166e+07  -2.486428e+06  7.198194e+05  -3.717631e+06  -1.672555e+06  2.583926e+13
B:6:9 291 41904 9  8.880328e+06  1.065957e+07  -2.728685e+06  8.044834e+04  -3.613592e+06  -2.176504e+06  2.496391e+13
B:6:9 292 42048 9  -9.939791e+04  1.578450e+03  -1.871189e+04  -1.251524e+05  5.765428e+04  -1.427154e+05  1.322368e+12
B:6:6 293 42192 6  -1.448370e+06  9.819567e+06  7.760578e+06  6.730892e+06  3.895454e+06  2.971585e+06  4.362871e+13
B:6:7 294 42336 7  -1.409728e+06  1.028669e+07  6.131150e+06  6.907561e+06  2.925922e+06  2.826476e+06  2.791627e+13
B:6:8 295 42480 8  -2.689874e+06  7.264149e+06  8.200589e+06  7.340317e+06  4.223308e+06  3.849911e+06  4.270753e+13
B:6:7 296 42624 7  -2.008126e+06  9.253246e+06  8.005381e+06  7.028320e+06  3.883570e+06  3.317053e+06  4.284639e+13
B:6:5 297 42768 5  -1.137606e+06  9.966771e+06  6.819033e+06  6.220952e+06  3.596509e+06  2.618429e+06  3.454484e+13
B:6:9 298 42912 9  -2.862745e+06  7.070550e+06  7.883048e+06  7.214044e+06  4.064896e+06  3.587027e+06  3.631942e+13
B:6:7 299 43056 7  -1.785800e+06  9.826941e+06  8.403622e+06  7.578429e+06  4.208087e+06  3.688679e+06  4.919843e+13
B:6:9 300 43200 9  -2.927923e+06  1.085023e+07  9.621332e+06  1.027768e+07  5.533405e+06  5.545080e+06  7.320980e+13
B:6:7 301 43344 7  -2.406208e+06  8.461211e+06  7.706831e+06  6.857177e+06  3.863682e+06  3.381562e+06  3.729720e+13
B:6:9 302 43488 9  -2.792309e+06  7.681980e+06  8.287399e+06  7.680549e+06  4.205306e+06  3.780119e+06  3.897939e+13
B:6:7 303 43632 7  -1.887674e+06  9.679632e+06  8.222061e+06  7.330360e+06  4.044988e+06  3.407767e+06  4.445557e+13
B:6:6 304 43776 6  -1.460497e+06  9.872172e+06  7.507860e+06  6.403799e+06  3.747082e+06  2.730359e+06  4.008346e+13
B:6:8 305 43920 8  -1.972171e+06  9.129293e+06  7.852032e+06  7.117552e+06  3.736280e+06  3.123444e+06  3.992127e+13
B:6:7 306 44064 7  -1.943352e+06  9.943008e+06  7.499047e+06  7.039393e+06  3.746316e+06  3.098384e+06  3.577291e+13
B:6:9 307 44208 9  -1.116941e+06  1.102565e+07  7.723163e+06  8.483556e+06  3.787853e+06  3.731624e+06  4.956452e+13
B:6:9 308 44352 9  -3.281560e+06  5.735939e+06  7.707082e+06  7.037191e+06  3.867849e+06  3.680494e+06  3.461903e+13
B:6:8 309 44496 8  -2.423306e+06  7.810357e+06  8.085552e+06  6.806172e+06  3.783778e+06  3.257955e+06  3.829990e+13
B:6:9 310 44640 9  -2.944439e+06  8.725962e+06  8.439290e+06  7.915561e+06  4.032158e+06  3.679512e+06  4.336780e+13
B:6:9 311 44784 9  -3.344966e+06  7.116515e+06  8.048380e+06  7.559842e+06  4.248790e+06  3.868346e+06  3.685680e+13
B:6:8 312 44928 8  -2.533711e+06  7.674897e+06  7.756212e+06  7.130334e+06  4.022641e+06  3.576341e+06  3.436956e+13
B:6:9 313 45072 9  -2.242394e+06  8.833604e+06  8.103508e+06  7.430162e+06  3.774915e+06  3.301721e+06  3.988266e+13
B:6:9 314 45216 9  -2.667499e+06  8.670110e+06  8.284823e+06  7.521707e+06  3.878575e+06  3.369052e+06  3.679616e+13
B:6:9 315 45360 9  -2.310568e+06  8.809094e+06  7.028059e+06  7.829407e+06  4.056496e+06  3.811061e+06  3.912818e+13
B:6:9 316 45504 9  -2.771720e+06  6.712588e+06  8.006911e+06  7.211900e+06  3.820101e+06  3.580651e+06  3.711268e+13
B:6:9 317 45648 9  -2.396567e+06  1.065702e+07  9.298785e+06  8.715396e+06  4.437931e+06  4.009459e+06  5.570825e+13
B:6:8 318 45792 8  -2.895624e+06  8.258026e+06  7.952857e+06  7.388632e+06  4.107762e+06  3.669387e+06  3.578728e+13
B:6:8 319 45936 8  -1.927663e+06  1.004233e+07  8.100545e+06  7.373058e+06  3.936592e+06  3.265019e+06  4.161452e+13
B:6:8 320 46080 8  -2.279250e+06  8.023293e+06  7.870041e+06  7.194688e+06  4.028364e+06  3.484540e+06  3.803222e+13
B:6:9 321 46224 9  -3.188230e+06  7.326059e+06  8.261958e+06  7.759936e+06  4.371590e+06  3.864646e+06  3.912806e+13
B:6:9 322 46368 9  -3.020901e+06  7.459791e+06  8.146618e+06  7.365864e+06  3.962472e+06  3.569207e+06  3.759432e+13
B:6:9 323 46512 9  -2.794676e+06  7.869373e+06  7.248977e+06  7.040737e+06  3.683920e+06  3.169599e+06  2.993856e+13
B:6:8 324 46656 8  -2.455407e+06  7.568120e+06  7.831609e+06  6.935520e+06  3.844278e+06  3.448069e+06  3.740943e+13
B:6:9 325 46800 9  -9.270935e+04  1.358361e+07  8.499037e+06  9.400945e+06  3.823515e+06  3.918314e+06  7.115103e+13
B:6:6 326 46944 6  -1.385756e+06  9.650605e+06  7.320946e+06  6.179326e+06  3.596493e+06  2.586521e+06  3.557981e+13
B:6:9 327 47088 9  -2.268185e+06  9.971761e+06  8.457098e+06  8.628693e+06  4.482353e+06  4.335186e+06  5.176313e+13
B:6:5 328 47232 5  -3.421684e+05  1.051019e+07  6.774362e+06  6.189792e+06  3.475107e+06  2.408015e+06  3.702640e+13
B:6:9 329 47376 9  -3.398777e+06  7.264362e+06  8.471407e+06  8.274557e+06  4.519612e+06  4.404826e+06  4.424809e+13
B:6:6 330 47520 6  -2.029392e+06  8.394839e+06  7.511741e+06  6.087095e+06  3.801671e+06  2.868707e+06  3.695217e+13
B:6:8 331 47664 8  -2.658262e+06  7.012037e+06  7.650983e+06  6.484916e+06  3.853796e+06  3.129215e+06  3.225534e+13
B:6:8 332 47808 8  -2.243762e+06  8.007688e+06  7.858132e+06  6.873563e+06  3.694881e+06  3.281420e+06  3.664317e+13
B:6:9 333 47952 9  -2.787060e+06  9.897048e+06  7.451675e+06  9.609706e+06  5.053805e+06  5.237989e+06  5.126628e+13
B:6:9 334 48096 9  -2.741491e+06  7.215790e+06  7.617121e+06  6.921154e+06  3.724700e+06  3.258492e+06  3.122900e+13
B:6:9 335 48240 9  -2.681390e+06  6.516768e+06  7.642731e+06  7.103021e+06  3.820710e+06  3.599936e+06  3.315408e+13
B:6:8 336 48384 8  -2.671836e+06  8.591792e+06  7.478678e+06  6.930041e+06  3.875484e+06  3.208319e+06  3.374170e+13
B:6:6 337 48528 6  -3.274769e+05  1.121143e+07  6.685760e+06  7.106998e+06  3.205303e+06  2.980955e+06  4.153681e+13
B:6:6 338 48672 6  -2.189914e+06  8.013045e+06  7.214327e+06  5.994986e+06  3.654824e+06  2.879877e+06  3.408191e+13
B:6:4 339 48816 4  -6.612891e+05  9.665829e+06  6.472311e+06  5.800432e+06  3.485991e+06  2.419500e+06  3.675536e+13
B:6:9 340 48960 9  -3.307437e+06  6.210234e+06  7.983422e+06  7.684540e+06  4.281568e+06  4.139938e+06  3.710809e+13
B:6:8 341 49104 8  -8.707780e+05  1.235047e+07  8.093161e+06  8.262061e+06  3.730310e+06  3.493496e+06  5.173430e+13
B:6:9 342 49248 9  -8.194407e+04  -1.063020e+05  -1.091957e+05  -7.717443e+04  -6.578666e+04  -4.593860e+04  1.040244e+12
B:6:6 343 49392 6  -2.165640e+06  -1.148159e+06  -2.741781e+06  -2.840905e+06  -2.466634e+06  -1.280049e+06  1.826869e+14
B:6:9 344 49536 9  -3.473879e+06  -1.612734e+06  -3.850453e+06  2.028058e+05  1.612214e+06  3.882587e+06  1.946867e+14
B:6:9 345 49680 9  -3.274256e+06  8.153627e+06  8.084721e+06  7.846204e+06  4.243293e+06  3.891440e+06  3.839922e+13
B:6:9 346 49824 9  -3.130737e+06  6.556482e+06  7.793430e+06  7.172867e+06  4.058653e+06  3.637992e+06  3.421067e+13
B:6:9 347 49968 9  -7.931087e+04  -1.173807e+05  -7.769346e+04  -9.749414e+04  -9.810049e+03  -8.775747e+04  1.913860e+12
B:6:6 348 50112 6  -1.247708e+06  1.072613e+07  7.123367e+06  7.105317e+06  3.490683e+06  3.115042e+06  3.667713e+13
B:6:7 349 50256 7  3.511464e+05  1.286015e+07  7.565177e+06  8.546154e+06  3.695757e+06  3.793706e+06  5.909931e+13
B:6:9 350 50400 9  3.044292e+05  -8.023560e+04  4.169500e+05  -3.989533e+05  4.878603e+05  -3.517592e+05  5.322332e+13
B:6:5 351 50544 5  -6.855256e+05  1.068189e+07  7.128929e+06  6.709963e+06  3.685322e+06  2.908370e+06  4.293581e+13
B:6:5 352 50688 5  -4.739867e+05  1.116633e+07  7.356447e+06  6.958877e+06  3.795829e+06  3.006674e+06  4.624628e+13
B:6:5 353 50832 5  -1.424083e+06  9.363325e+06  7.046779e+06  5.971154e+06  3.740158e+06  2.593148e+06  3.737396e+13
B:6:6 354 50976 6  -1.362726e+06  9.999000e+06  6.734029e+06  6.530773e+06  3.472320e+06  2.791809e+06  3.539534e+13
B:6:9 355 51120 9  -2.667733e+06  8.279317e+06  8.516888e+06  7.533427e+06  3.934910e+06  3.489758e+06  4.093596e+13
B:6:6 356 51264 6  -1.406469e+06  9.752894e+06  7.312999e+06  6.794410e+06  3.792661e+06  3.103552e+06  3.939354e+13
B:6:9 357 51408 9  -4.036579e+06  4.436102e+06  6.656146e+06  8.195616e+06  5.361353e+06  5.436994e+06  4.114796e+13
B:6:6 358 51552 6  -1.375124e+06  1.095554e+07  6.864901e+06  7.444430e+06  3.502497e+06  3.358099e+06  3.619511e+13
B:6:5 359 51696 5  -6.831642e+05  1.090511e+07  7.310431e+06  6.375999e+06  3.639305e+06  2.498236e+06  4.078920e+13
B:6:8 360 51840 8  -1.892176e+06  1.062862e+07  8.139642e+06  8.116381e+06  4.128820e+06  3.816355e+06  4.992854e+13
B:6:5 361 51984 5  -5.808164e+05  1.048042e+07  6.574803e+06  6.132308e+06  3.279816e+06  2.362836e+06  3.734317e+13
B:6:9 362 52128 9  -3.195285e+06  6.997753e+06  8.168182e+06  7.979704e+06  4.290767e+06  4.216090e+06  4.044402e+13
B:6:9 363 52272 9  -2.755390e+06  8.470416e+06  8.383884e+06  7.724777e+06  4.010339e+06  3.608655e+06  4.169170e+13
B:6:9 364 52416 9  -3.246051e+06  7.024064e+06  8.084074e+06  7.535152e+06  4.374224e+06  3.797459e+06  3.540834e+13
B:6:8 365 52560 8  -1.804400e+06  9.882979e+06  7.734687e+06  7.864707e+06  3.927189e+06  3.667431e+06  4.199326e+13
B:6:9 366 52704 9  -3.140126e+06  9.107185e+06  8.099706e+06  8.878326e+06  4.812902e+06  4.536477e+06  4.783301e+13
B:6:9 367 52848 9  -2.560992e+06  7.115619e+06  6.944400e+06  7.253631e+06  3.922028e+06  3.926685e+06  3.349172e+13
B:6:7 368 52992 7  -9.371478e+05  7.506263e+06  5.922189e+06  5.211746e+06  2.719499e+06  2.326127e+06  2.407283e+13
B:6:7 369 53136 7  -1.151645e+06  8.296559e+06  6.526584e+06  5.956623e+06  3.091175e+06  2.796505e+06  3.136916e+13
B:6:9 370 53280 9  -9.642125e+05  1.461166e+07  8.543049e+06  1.153360e+07  5.498277e+06  6.200677e+06  9.568181e+13
B:6:9 371 53424 9  -1.099984e+06  1.197165e+07  7.461116e+06  9.870099e+06  4.700281e+06  5.043448e+06  6.554963e+13
B:6:9 372 53568 9  -2.546823e+06  6.960249e+06  7.531100e+06  7.377766e+06  3.892939e+06  3.713622e+06  3.583664e+13
B:6:7 373 53712 7  -1.556937e+06  1.047536e+07  8.460539e+06  7.656019e+06  4.177339e+06  3.431598e+06  5.434895e+13
R: 6 7 5.434B:6:5 374 53856 5  -1.289705e+06  1.046440e+07  7.636898e+06  6.591611e+06  3.959767e+06  2.860739e+06  4.474693e+13
B:6:5 375 54000 5  -1.487038e+06  9.399217e+06  7.291180e+06  6.117109e+06  3.926155e+06  2.713925e+06  3.700998e+13
B:6:5 376 54144 5  -3.484261e+05  1.134630e+07  7.315510e+06  6.531909e+06  3.518340e+06  2.526307e+06  4.793948e+13
B:6:6 377 54288 6  -1.068393e+06  1.104628e+07  8.001555e+06  6.860716e+06  3.820138e+06  2.803474e+06  4.515294e+13
B:6:6 378 54432 6  -1.536067e+05  1.269124e+07  8.040320e+06  7.846574e+06  3.930566e+06  3.213436e+06  5.876205e+13
B:6:8 379 54576 8  -2.068939e+06  9.109892e+06  8.154308e+06  7.245903e+06  3.982380e+06  3.312562e+06  3.896218e+13
B:6:9 380 54720 9  2.831375e+05  -8.611738e+05  -1.252154e+05  -1.420200e+06  -3.950821e+05  -7.557729e+05  2.691834e+14
B:6:9 381 54864 9  3.552232e+05  1.706401e+05  3.254605e+05  1.475648e+05  2.627614e+05  1.187263e+05  1.253411e+13
B:6:9 382 55008 9  -1.037261e+05  -1.991280e+05  3.430608e+04  -2.091956e+05  -6.380461e+04  -1.728699e+05  2.524887e+12
B:6:9 383 55152 9  -1.043643e+06  5.472337e+05  2.438449e+05  1.200836e+06  -7.543771e+05  1.217510e+06  2.337316e+14
B:6:7 384 55296 7  -1.714910e+06  9.906670e+06  8.327290e+06  7.169918e+06  3.901721e+06  3.231867e+06  4.713651e+13
B:6:5 385 55440 5  -9.694641e+05  1.125931e+07  7.574481e+06  7.066536e+06  4.021493e+06  3.086916e+06  4.589649e+13
B:6:9 386 55584 9  -2.542997e+06  8.254487e+06  8.265334e+06  7.396298e+06  3.923967e+06  3.452440e+06  3.611556e+13
B:6:9 387 55728 9  -2.729536e+06  7.862347e+06  8.106932e+06  7.579748e+06  4.173007e+06  3.589623e+06  3.693927e+13
B:6:8 388 55872 8  -2.481410e+06  9.208861e+06  8.552002e+06  7.604395e+06  4.177587e+06  3.517860e+06  4.207087e+13
B:6:8 389 56016 8  -2.225650e+06  9.137688e+06  7.537607e+06  7.299282e+06  3.776720e+06  3.389147e+06  3.840614e+13
B:6:9 390 56160 9  -2.831789e+06  7.112466e+06  8.055052e+06  7.161673e+06  3.669407e+06  3.460528e+06  3.722924e+13
B:6:7 391 56304 7  -9.711591e+05  1.021067e+07  7.132012e+06  7.518609e+06  3.588001e+06  3.513822e+06  4.097520e+13
B:6:9 392 56448 9  -1.078676e+06  -1.416430e+06  -1.645466e+05  -5.962110e+05  2.795230e+05  -1.027470e+06  2.851610e+14
B:6:8 393 56592 8  -5.761778e+05  1.384989e+07  9.517250e+06  9.626199e+06  4.379519e+06  4.109405e+06  7.732480e+13
B:6:9 394 56736 9  -2.985523e+06  7.225516e+06  8.153397e+06  7.896328e+06  4.254758e+06  4.026782e+06  3.994145e+13
B:6:9 395 56880 9  -2.586291e+06  8.117493e+06  8.051370e+06  7.627428e+06  4.075376e+06  3.575161e+06  4.253795e+13
B:6:5 396 57024 5  1.621100e+06  1.192386e+07  5.597663e+06  7.516882e+06  2.613799e+06  3.285381e+06  4.610165e+13
B:6:9 397 57168 9  -3.113291e+06  6.761644e+06  7.611577e+06  7.350275e+06  4.048875e+06  3.716587e+06  3.270082e+13
B:6:7 398 57312 7  -2.378421e+06  8.037069e+06  7.761654e+06  6.181735e+06  3.745062e+06  2.839782e+06  3.686787e+13
B:6:8 399 57456 8  -2.689996e+06  7.029036e+06  7.784473e+06  6.812052e+06  3.910372e+06  3.415568e+06  3.602723e+13
B:6:8 400 57600 8  -2.717966e+06  7.679434e+06  8.043051e+06  7.206135e+06  4.035863e+06  3.588633e+06  3.766641e+13
B:6:8 401 57744 8  -1.935074e+06  9.450333e+06  8.284381e+06  7.436758e+06  3.844499e+06  3.332346e+06  4.279993e+13
B:6:9 402 57888 9  -4.144393e+06  4.744074e+06  7.043390e+06  8.119048e+06  5.157690e+06  5.174236e+06  3.903234e+13
B:6:8 403 58032 8  4.488860e+04  1.153528e+07  6.389348e+06  8.064148e+06  2.975696e+06  3.400405e+06  4.502510e+13
B:6:7 404 58176 7  -2.523673e+06  8.131838e+06  7.873203e+06  6.933357e+06  3.930989e+06  3.437228e+06  4.196065e+13
B:6:9 405 58320 9  -3.330850e+06  7.285152e+06  7.721011e+06  7.210312e+06  3.757341e+06  3.469337e+06  3.338666e+13
B:6:9 406 58464 9  -3.002768e+06  6.205518e+06  7.682366e+06  6.640893e+06  3.467038e+06  3.214161e+06  3.424047e+13
B:6:6 407 58608 6  -1.663597e+06  8.048914e+06  6.997306e+06  5.546137e+06  3.344931e+06  2.403978e+06  3.112835e+13
B:6:9 408 58752 9  -2.853273e+06  7.645413e+06  8.253735e+06  7.784492e+06  4.114061e+06  3.864840e+06  3.963089e+13
B:6:6 409 58896 6  -1.671890e+06  9.242351e+06  7.679505e+06  6.828857e+06  4.044468e+06  3.177754e+06  4.795850e+13
B:6:8 410 59040 8  -2.114870e+06  8.547574e+06  7.646883e+06  6.794651e+06  3.691479e+06  3.088960e+06  3.501179e+13
B:6:6 411 59184 6  -1.292276e+06  1.012175e+07  6.469915e+06  6.337704e+06  3.077600e+06  2.547785e+06  3.075753e+13
B:6:8 412 59328 8  -2.692260e+06  7.186722e+06  7.843421e+06  6.507616e+06  3.517404e+06  3.136673e+06  3.665816e+13
B:6:9 413 59472 9  -3.775904e+06  6.278197e+06  7.024195e+06  7.270798e+06  4.424145e+06  3.943445e+06  3.107009e+13
B:6:6 414 59616 6  -2.098895e+06  8.199789e+06  7.029044e+06  5.550774e+06  3.463794e+06  2.428947e+06  3.195105e+13
B:6:6 415 59760 6  -1.292213e+06  9.624197e+06  7.430619e+06  6.181469e+06  3.612863e+06  2.538281e+06  3.907261e+13
B:6:9 416 59904 9  -2.686811e+06  7.617020e+06  8.163458e+06  7.716329e+06  4.063152e+06  3.737869e+06  4.390752e+13
B:6:6 417 60048 6  -4.606848e+05  1.035462e+07  5.815072e+06  6.984356e+06  2.966278e+06  3.150776e+06  3.317814e+13
B:6:8 418 60192 8  -6.706961e+05  9.399877e+06  5.787473e+06  7.341961e+06  2.697310e+06  3.287594e+06  3.300170e+13
B:6:8 419 60336 8  -1.826821e+06  9.404623e+06  7.988781e+06  7.514315e+06  3.868935e+06  3.485113e+06  4.672304e+13
B:6:9 420 60480 9  -3.172439e+06  6.590303e+06  7.314898e+06  7.348665e+06  4.195993e+06  3.859689e+06  3.368602e+13
B:6:6 421 60624 6  -1.748411e+06  9.597316e+06  7.433275e+06  6.722113e+06  3.852598e+06  3.148849e+06  4.177829e+13
B:6:9 422 60768 9  -2.161378e+06  9.364185e+06  6.981398e+06  7.873876e+06  3.784161e+06  3.580318e+06  3.627675e+13
B:6:7 423 60912 7  -2.441827e+06  7.550927e+06  7.692933e+06  6.619097e+06  4.029425e+06  3.325931e+06  3.642250e+13
B:6:7 424 61056 7  -2.095826e+06  8.489418e+06  7.311852e+06  6.346282e+06  3.621093e+06  2.860892e+06  3.375712e+13
B:6:8 425 61200 8  -2.660712e+06  7.392283e+06  7.815785e+06  7.028701e+06  3.987855e+06  3.602871e+06  3.759457e+13
B:6:9 426 61344 9  -1.283911e+05  2.903166e+04  -1.714633e+04  -8.544219e+04  2.438150e+04  -1.025605e+05  1.774118e+12
B:6:9 427 61488 9  -2.952630e+06  5.813717e+06  7.372331e+06  6.883332e+06  3.688975e+06  3.501577e+06  3.645683e+13
B:6:8 428 61632 8  -1.135610e+06  1.094763e+07  7.146017e+06  7.586789e+06  3.418968e+06  3.140694e+06  4.043329e+13
B:6:9 429 61776 9  -2.977494e+06  6.492432e+06  7.698347e+06  7.159429e+06  4.075942e+06  3.616591e+06  3.309564e+13
B:6:7 430 61920 7  -2.515839e+06  6.802983e+06  7.304264e+06  6.183733e+06  3.772067e+06  3.175282e+06  3.434065e+13
B:6:8 431 62064 8  -2.589720e+06  7.548144e+06  7.642745e+06  7.060780e+06  4.020296e+06  3.517491e+06  3.506766e+13
B:6:6 432 62208 6  -1.347376e+06  9.853878e+06  6.814877e+06  6.710318e+06  3.587755e+06  2.989336e+06  3.640480e+13
B:6:5 433 62352 5  -1.086534e+06  9.218696e+06  6.776495e+06  5.813494e+06  3.441773e+06  2.420790e+06  3.422434e+13
B:6:5 434 62496 5  -1.613799e+06  8.240170e+06  6.901839e+06  5.719795e+06  3.715993e+06  2.664476e+06  3.484868e+13
B:6:8 435 62640 8  -2.248613e+06  7.553707e+06  7.705180e+06  6.438534e+06  3.547816e+06  3.010706e+06  3.417628e+13
B:6:6 436 62784 6  -2.048714e+06  7.586881e+06  7.008630e+06  6.007395e+06  3.670855e+06  2.963493e+06  3.310533e+13
B:6:7 437 62928 7  -2.478373e+06  7.242283e+06  7.491861e+06  6.479720e+06  3.894407e+06  3.301566e+06  3.342299e+13
B:6:8 438 63072 8  -2.617644e+06  6.754656e+06  7.630287e+06  6.755347e+06  3.866216e+06  3.483878e+06  3.419659e+13
B:6:8 439 63216 8  -2.069043e+06  7.833693e+06  8.019005e+06  6.833897e+06  3.630621e+06  3.206460e+06  3.966787e+13
B:6:5 440 63360 5  -7.543868e+05  9.958271e+06  6.812844e+06  6.050398e+06  3.358123e+06  2.422659e+06  3.759491e+13
B:6:9 441 63504 9  -1.413868e+06  1.170860e+07  8.249434e+06  9.202954e+06  4.470112e+06  4.325463e+06  6.171168e+13
B:6:8 442 63648 8  1.088888e+06  1.116920e+07  7.327175e+06  8.394709e+06  3.207398e+06  3.764797e+06  6.326126e+13
B:6:9 443 63792 9  -2.662383e+06  9.095787e+06  9.113358e+06  8.510497e+06  4.293296e+06  4.023603e+06  5.014766e+13
B:6:9 444 63936 9  -2.973220e+06  8.875540e+06  8.448807e+06  8.977635e+06  4.469863e+06  4.548665e+06  4.794666e+13
B:6:9 445 64080 9  -3.273728e+06  6.779478e+06  8.326188e+06  7.905503e+06  4.293315e+06  4.087287e+06  4.158465e+13
B:6:5 446 64224 5  3.250335e+06  1.255217e+07  5.447896e+06  7.470692e+06  1.922247e+06  3.090537e+06  5.321134e+13
B:6:5 447 64368 5  -4.457014e+05  1.087790e+07  7.130649e+06  6.822001e+06  3.714517e+06  2.992201e+06  4.598351e+13
B:6:5 448 64512 5  -3.549704e+05  1.073374e+07  6.934590e+06  6.727881e+06  3.333632e+06  2.916263e+06  4.028052e+13
B:6:9 449 64656 9  -2.777865e+06  7.998411e+06  7.631322e+06  7.691961e+06  4.126589e+06  3.805279e+06  3.718179e+13
B:6:7 450 64800 7  -1.345322e+06  9.550369e+06  8.047508e+06  7.186566e+06  3.890513e+06  3.364110e+06  4.783512e+13
B:6:9 451 64944 9  -2.828707e+06  7.652230e+06  8.456205e+06  7.634056e+06  3.951504e+06  3.686077e+06  4.381057e+13
B:6:8 452 65088 8  -2.075479e+06  9.420477e+06  7.159740e+06  7.733984e+06  3.788094e+06  3.637606e+06  3.855957e+13
B:6:8 453 65232 8  -2.086548e+06  8.862817e+06  8.376502e+06  7.620690e+06  3.980618e+06  3.691776e+06  4.815737e+13
B:6:8 454 65376 8  -2.032206e+06  9.013564e+06  8.554183e+06  7.840452e+06  4.025444e+06  3.676774e+06  5.196288e+13
B:6:8 455 65520 8  -2.138407e+06  8.000742e+06  8.047530e+06  6.800063e+06  3.799219e+06  3.128689e+06  3.893433e+13
B:6:9 456 65664 9  1.042704e+07  1.586955e+07  3.635462e+06  7.908869e+06  -1.453555e+06  2.113942e+06  1.193928e+14
B:6:9 457 65808 9  -2.696175e+06  7.841003e+06  8.363004e+06  8.189930e+06  4.438585e+06  4.208048e+06  4.393320e+13
B:6:6 458 65952 6  -8.658341e+05  1.006385e+07  7.199985e+06  6.444419e+06  3.370425e+06  2.654816e+06  3.999197e+13
B:6:6 459 66096 6  -1.735239e+06  8.077129e+06  7.445573e+06  6.056382e+06  3.727279e+06  2.911567e+06  3.819420e+13
B:6:3 460 66240 3  3.400159e+05  1.089507e+07  6.431636e+06  6.012636e+06  3.504922e+06  2.251783e+06  4.451764e+13
B:6:9 461 66384 9  8.958009e+05  -4.787953e+04  2.877715e+05  9.964185e+04  -1.720337e+04  1.846377e+05  1.706363e+12
B:6:8 462 66528 8  -2.460859e+06  7.501315e+06  7.462092e+06  6.664268e+06  3.675183e+06  3.194993e+06  3.289966e+13
B:6:8 463 66672 8  -1.749045e+06  9.240698e+06  8.055720e+06  7.339472e+06  3.835125e+06  3.397511e+06  4.239826e+13
B:6:9 464 66816 9  -5.490432e+05  -3.002425e+05  -4.466175e+05  -4.150855e+05  -4.191859e+05  -3.556784e+05  4.176680e+12
B:6:9 465 66960 9  -2.464781e+06  7.212382e+06  7.825563e+06  7.330877e+06  3.715646e+06  3.558973e+06  3.670221e+13
B:6:5 466 67104 5  -1.096022e+06  9.236399e+06  6.729078e+06  6.123877e+06  3.566292e+06  2.794713e+06  3.799708e+13
B:6:5 467 67248 5  -2.458200e+05  9.580652e+06  6.597589e+06  5.529848e+06  3.207352e+06  2.064292e+06  3.705635e+13
B:6:8 468 67392 8  -2.628109e+06  7.295963e+06  8.080072e+06  6.932422e+06  4.044115e+06  3.388945e+06  4.046282e+13
B:6:7 469 67536 7  -2.301655e+06  7.447083e+06  7.508316e+06  6.089673e+06  3.736730e+06  2.897821e+06  3.594359e+13
B:6:5 470 67680 5  -7.712382e+05  9.920963e+06  7.365704e+06  6.780723e+06  3.923451e+06  3.107482e+06  5.178410e+13
B:6:8 471 67824 8  -1.907893e+06  8.252480e+06  7.991193e+06  7.106919e+06  3.792252e+06  3.340212e+06  4.667786e+13
B:6:9 472 67968 9  -3.022495e+06  6.675608e+06  7.896834e+06  7.563392e+06  4.193906e+06  3.912800e+06  3.792410e+13
B:6:8 473 68112 8  -2.038279e+06  7.863463e+06  7.583947e+06  6.664311e+06  3.539833e+06  3.129920e+06  3.505405e+13
B:6:7 474 68256 7  -1.199528e+06  1.065133e+07  8.293599e+06  7.855904e+06  4.232902e+06  3.697450e+06  5.644855e+13
B:6:9 475 68400 9  -3.182982e+06  5.605005e+06  7.683638e+06  7.402388e+06  4.033219e+06  4.014298e+06  3.586525e+13
B:6:8 476 68544 8  -2.373956e+06  7.148852e+06  7.792773e+06  7.068654e+06  3.979282e+06  3.583654e+06  4.414993e+13
B:6:8 477 68688 8  -2.612276e+06  6.315131e+06  7.336689e+06  6.316715e+06  3.520065e+06  3.179819e+06  3.265116e+13
B:6:9 478 68832 9  -2.403902e+06  8.115963e+06  7.009857e+06  7.338476e+06  3.680643e+06  3.443257e+06  3.475621e+13
B:6:9 479 68976 9  -2.726366e+06  6.834692e+06  7.697787e+06  7.148339e+06  3.806775e+06  3.519003e+06  3.561936e+13
B:6:9 480 69120 9  -2.677723e+06  6.433244e+06  7.535735e+06  6.691105e+06  3.680649e+06  3.256451e+06  3.158816e+13
B:6:9 481 69264 9  -1.498013e+06  1.054086e+07  7.808257e+06  8.978673e+06  4.429162e+06  4.429907e+06  5.506906e+13
B:6:8 482 69408 8  -2.219013e+06  7.821633e+06  7.168161e+06  6.264177e+06  3.445916e+06  2.719342e+06  3.058951e+13
B:6:9 483 69552 9  1.546357e+05  7.977456e+05  -3.472430e+04  7.193945e+05  -1.992472e+05  4.834114e+05  6.738695e+12
B:6:6 484 69696 6  -1.748418e+06  8.141347e+06  7.079070e+06  5.678328e+06  3.595037e+06  2.581857e+06  3.521186e+13
B:6:4 485 69840 4  -9.364910e+05  9.303264e+06  6.480715e+06  5.697892e+06  3.617110e+06  2.404593e+06  3.567424e+13
B:6:8 486 69984 8  -2.530604e+06  6.878700e+06  7.221140e+06  6.029700e+06  3.444824e+06  2.759497e+06  2.923868e+13
B:6:9 487 70128 9  -5.749341e+05  1.288511e+07  7.763232e+06  8.617145e+06  3.951510e+06  3.816886e+06  5.791754e+13
B:6:9 488 70272 9  -2.574445e+06  6.861164e+06  7.799561e+06  7.056719e+06  3.848668e+06  3.407368e+06  3.425385e+13
B:6:5 489 70416 5  -1.153972e+06  9.234447e+06  6.712003e+06  5.699234e+06  3.486157e+06  2.349937e+06  3.241508e+13
B:6:9 490 70560 9  2.771403e+05  -5.007519e+04  -1.042332e+04  -1.167886e+05  -3.936129e+04  -1.546225e+05  5.865901e+12
B:6:9 491 70704 9  -3.244486e+06  6.615758e+06  7.240172e+06  7.445371e+06  4.130193e+06  3.819793e+06  3.258566e+13
B:6:9 492 70848 9  1.571630e+05  6.621106e+05  -5.879436e+04  5.589447e+05  -1.620387e+05  5.670957e+05  4.022706e+13
B:6:9 493 70992 9  -1.885669e+06  6.651014e+05  -3.578541e+05  2.100778e+06  -6.208110e+05  1.937620e+06  3.474581e+14
B:6:4 494 71136 4  -4.445732e+05  8.687266e+06  5.816054e+06  5.264933e+06  3.138291e+06  2.187301e+06  3.122603e+13
B:6:7 495 71280 7  -1.855145e+06  8.456432e+06  7.847558e+06  6.965178e+06  4.088216e+06  3.374144e+06  4.572244e+13
B:6:8 496 71424 8  -2.228880e+06  7.137849e+06  7.343550e+06  6.169753e+06  3.512826e+06  2.854322e+06  3.163618e+13
B:6:8 497 71568 8  -1.866080e+06  8.828780e+06  7.008629e+06  6.883041e+06  3.538749e+06  3.140736e+06  3.705202e+13
R: 6 8 3.705202eB:6:5 498 71712 5  -1.488463e+06  7.957571e+06  6.673000e+06  5.471748e+06  3.442848e+06  2.508039e+06  3.414250e+13
B:6:6 499 71856 6  -1.253966e+06  8.719791e+06  7.428629e+06  5.955773e+06  3.504929e+06  2.674896e+06  4.068896e+13
B:6:9 500 72000 9  -2.614515e+06  6.950678e+06  7.817254e+06  6.849617e+06  3.703095e+06  3.215549e+06  3.483562e+13
B:6:9 501 72144 9  -3.306496e+06  6.094711e+06  7.254677e+06  6.901074e+06  3.949481e+06  3.452827e+06  2.945361e+13
B:6:8 502 72288 8  -2.785351e+06  7.489288e+06  7.547720e+06  7.295307e+06  3.969230e+06  3.659827e+06  3.726200e+13
B:6:5 503 72432 5  -1.143132e+06  9.473405e+06  7.081748e+06  6.180283e+06  3.738204e+06  2.747742e+06  3.906018e+13
B:6:7 504 72576 7  -1.997907e+06  9.432050e+06  7.196458e+06  7.266693e+06  3.872244e+06  3.412810e+06  3.764333e+13
B:6:9 505 72720 9  -3.924993e+06  2.991321e+06  5.858658e+06  7.820879e+06  5.152607e+06  5.544310e+06  4.294407e+13
B:6:9 506 72864 9  -3.167027e+06  5.155508e+06  7.459954e+06  7.995275e+06  4.315776e+06  4.682464e+06  4.120732e+13
B:6:9 507 73008 9  -4.255628e+06  1.584362e+06  4.969993e+06  7.866309e+06  5.226119e+06  6.127562e+06  4.899913e+13
B:6:9 508 73152 9  -4.029428e+06  6.842348e+05  3.483206e+06  7.089080e+06  4.844103e+06  6.087159e+06  5.003659e+13
B:6:9 509 73296 9  -4.587505e+06  2.013193e+06  5.391214e+06  7.548337e+06  5.276668e+06  5.713271e+06  4.380192e+13
B:6:9 510 73440 9  -4.550335e+06  1.452921e+06  4.866926e+06  8.176557e+06  5.894180e+06  6.695043e+06  6.125968e+13
B:6:9 511 73584 9  -5.238854e+06  3.505209e+06  5.244220e+06  8.606486e+06  5.999068e+06  6.398045e+06  5.493278e+13
B:6:9 512 73728 9  -4.200398e+06  2.551711e+06  5.522356e+06  8.157009e+06  5.473132e+06  6.105553e+06  4.936587e+13
B:6:9 513 73872 9  -5.142546e+06  2.414874e+06  5.209872e+06  9.062752e+06  6.539055e+06  7.449291e+06  8.058058e+13
B:6:9 514 74016 9  -4.531193e+06  5.311289e+05  3.621624e+06  8.032244e+06  6.031973e+06  7.381213e+06  8.425154e+13
B:6:9 515 74160 9  -4.522151e+06  -1.075891e+06  1.470128e+06  6.848884e+06  5.435645e+06  7.278983e+06  9.662587e+13
B:6:9 516 74304 9  -4.997986e+06  7.306563e+05  3.467918e+06  7.278667e+06  5.836743e+06  6.724968e+06  7.168077e+13
B:6:9 517 74448 9  -4.611800e+06  6.935072e+06  6.116216e+06  1.011072e+07  6.905111e+06  7.683808e+06  1.012211e+14
B:6:9 518 74592 9  -4.743366e+06  1.716389e+06  4.584199e+06  8.611740e+06  6.342937e+06  7.388455e+06  8.127033e+13
B:6:9 519 74736 9  -4.796900e+06  1.704207e+06  4.716802e+06  8.231393e+06  6.107457e+06  6.825497e+06  6.589394e+13
B:6:9 520 74880 9  -5.604203e+06  4.592631e+06  5.691601e+06  9.911414e+06  7.320989e+06  8.451783e+06  1.160816e+14
B:6:9 521 75024 9  -4.406350e+06  2.021145e+06  5.016172e+06  8.806319e+06  6.004067e+06  7.222690e+06  7.465773e+13
B:6:9 522 75168 9  -4.697411e+06  8.759948e+05  4.049340e+06  8.242504e+06  5.964863e+06  7.160997e+06  7.298196e+13
B:6:9 523 75312 9  -4.207062e+06  2.021587e+06  5.367176e+06  8.183812e+06  5.561582e+06  6.177166e+06  5.350887e+13
B:6:9 524 75456 9  -5.335213e+06  8.384273e+05  2.874236e+06  6.874451e+06  5.982434e+06  6.670314e+06  8.228031e+13
B:6:9 525 75600 9  -4.050961e+06  -2.146293e+06  -1.896640e+06  3.403100e+06  4.094473e+06  6.156436e+06  1.608104e+14
B:6:9 526 75744 9  6.052683e+05  7.981542e+05  1.436342e+05  5.623848e+05  2.047975e+05  6.422104e+05  3.263540e+13
B:6:9 527 75888 9  -3.933034e+06  3.555264e+06  6.507900e+06  8.139791e+06  5.067191e+06  5.415397e+06  4.288744e+13
B:6:4 528 76032 4  -2.478309e+06  -5.703782e+05  -3.384051e+06  -2.493443e+06  -2.474675e+06  -1.167095e+06  2.100558e+14
B:6:9 529 76176 9  -5.004925e+06  5.985225e+06  6.768832e+06  1.049331e+07  7.172459e+06  8.205258e+06  1.037713e+14
B:6:9 530 76320 9  -4.537724e+06  -2.691456e+04  3.084558e+06  7.429063e+06  5.836309e+06  6.921347e+06  7.639323e+13
B:6:9 531 76464 9  -4.483502e+06  4.371701e+05  3.173738e+06  7.725006e+06  5.679732e+06  7.051130e+06  7.510037e+13
B:6:9 532 76608 9  -4.489878e+06  3.188207e+06  6.234579e+06  8.461931e+06  5.476885e+06  6.064600e+06  4.971484e+13
B:6:9 533 76752 9  -4.468827e+06  1.504013e+06  4.567810e+06  8.201831e+06  5.750628e+06  6.774462e+06  6.383438e+13
B:6:9 534 76896 9  -4.239573e+06  1.890569e+06  5.193222e+06  8.000733e+06  5.526581e+06  6.121096e+06  5.084988e+13
B:6:9 535 77040 9  -4.240706e+06  1.360232e+06  4.973784e+06  7.888313e+06  5.856520e+06  6.397946e+06  5.891087e+13
B:6:9 536 77184 9  -4.782204e+06  1.326361e+05  2.945849e+06  7.471960e+06  5.832028e+06  7.040105e+06  7.940826e+13
B:6:9 537 77328 9  -4.491906e+06  4.542238e+06  6.169525e+06  8.190805e+06  5.288243e+06  5.282216e+06  3.903904e+13
B:6:9 538 77472 9  -4.717541e+06  7.716979e+05  3.842008e+06  7.900827e+06  6.004470e+06  7.075021e+06  7.868258e+13
B:6:9 539 77616 9  -4.547954e+06  1.499601e+06  4.610310e+06  8.279372e+06  5.897565e+06  6.925471e+06  6.664937e+13
B:6:9 540 77760 9  -4.323090e+06  -5.507279e+05  2.188887e+06  7.019856e+06  5.351428e+06  6.900000e+06  7.723152e+13
B:6:9 541 77904 9  -4.008757e+06  1.502682e+06  4.913459e+06  7.543202e+06  5.164924e+06  5.788426e+06  4.450874e+13
B:6:9 542 78048 9  -5.311786e+06  1.478686e+06  3.148536e+06  7.024387e+06  5.967953e+06  6.543326e+06  7.841689e+13
B:6:9 543 78192 9  -4.737504e+06  3.609295e+06  5.630150e+06  8.937122e+06  6.510124e+06  7.099392e+06  7.628589e+13
B:6:9 544 78336 9  -4.149945e+06  3.543184e+06  6.398677e+06  9.078770e+06  6.446984e+06  6.840295e+06  7.806580e+13
B:6:9 545 78480 9  -4.552690e+06  1.597402e+06  4.555169e+06  8.466357e+06  5.956687e+06  7.021287e+06  6.886445e+13
B:6:9 546 78624 9  -2.121697e+06  2.136338e+05  -1.151725e+06  -2.076931e+06  -5.367519e+05  -1.755237e+06  2.630616e+14
B:6:9 547 78768 9  -4.514845e+06  2.761327e+05  3.691342e+06  7.978996e+06  5.838773e+06  7.166458e+06  7.575531e+13
B:6:9 548 78912 9  -4.374512e+06  2.699040e+06  5.780282e+06  8.602089e+06  5.670203e+06  6.271772e+06  5.278254e+13
B:6:9 549 79056 9  -4.330696e+06  4.231423e+06  6.774627e+06  9.599349e+06  6.069046e+06  6.771500e+06  6.594725e+13
B:6:9 550 79200 9  -5.044940e+06  3.055615e+06  4.983890e+06  9.126398e+06  6.694124e+06  7.684918e+06  8.943343e+13
B:6:9 551 79344 9  -4.653928e+06  1.614286e+06  4.803694e+06  8.664143e+06  6.144263e+06  7.173167e+06  7.002723e+13
B:6:9 552 79488 9  -4.899732e+06  6.731036e+05  3.638750e+06  7.734962e+06  6.054348e+06  6.934724e+06  7.348443e+13
B:6:9 553 79632 9  9.127334e+04  5.859778e+04  1.531743e+05  -3.634633e+05  2.145148e+05  -3.560774e+05  2.069187e+12
B:6:9 554 79776 9  -4.474949e+06  6.122410e+06  6.443546e+06  9.484453e+06  6.115593e+06  6.440042e+06  6.250668e+13
B:6:9 555 79920 9  1.591101e+06  5.153848e+05  7.105748e+05  -2.808888e+05  3.669618e+05  -3.376232e+05  2.091498e+14
B:6:9 556 80064 9  -5.172260e+06  1.516771e+06  3.996581e+06  9.179386e+06  6.751947e+06  8.468834e+06  1.139808e+14
B:6:9 557 80208 9  -4.287410e+06  5.444504e+06  7.177675e+06  9.729380e+06  6.006559e+06  6.753317e+06  6.563944e+13
B:6:9 558 80352 9  -4.882113e+06  1.900142e+06  4.779540e+06  9.185638e+06  6.527691e+06  7.797322e+06  8.536678e+13
B:6:9 559 80496 9  -4.399490e+06  3.305522e+06  5.999206e+06  8.691678e+06  5.958626e+06  6.434192e+06  6.081018e+13
B:6:9 560 80640 9  1.103832e+06  -4.555588e+05  5.805207e+05  -3.317395e+05  2.175847e+05  3.234866e+05  2.839265e+14
B:6:9 561 80784 9  -5.032270e+06  3.681132e+06  6.062996e+06  9.418833e+06  6.416326e+06  7.176061e+06  7.382989e+13
B:6:9 562 80928 9  -4.190450e+06  2.689401e+06  5.878649e+06  8.478378e+06  5.637297e+06  6.225175e+06  5.142845e+13
B:6:9 563 81072 9  -3.719981e+06  6.255764e+06  7.983894e+06  9.660786e+06  5.926283e+06  6.195658e+06  6.822664e+13
B:6:9 564 81216 9  -4.911536e+06  9.177507e+05  4.126410e+06  8.015881e+06  6.238265e+06  7.125107e+06  7.865368e+13
B:6:9 565 81360 9  -5.799533e+06  9.700946e+05  3.553558e+06  8.154412e+06  6.488285e+06  7.594988e+06  9.339750e+13
B:6:9 566 81504 9  -3.953177e+06  5.681317e+06  5.490985e+06  9.190271e+06  6.202115e+06  6.806327e+06  7.622578e+13
B:6:9 567 81648 9  -4.500266e+06  9.609789e+05  4.104318e+06  7.858542e+06  5.945123e+06  6.783415e+06  6.850840e+13
B:6:9 568 81792 9  -4.750064e+06  3.863235e+05  3.177333e+06  7.723213e+06  6.045448e+06  7.478810e+06  9.001825e+13
B:6:9 569 81936 9  -4.598347e+06  4.057284e+06  6.711093e+06  9.774667e+06  6.354698e+06  7.128198e+06  6.874249e+13
B:6:9 570 82080 9  -4.734123e+06  1.518334e+06  4.789355e+06  8.375349e+06  6.000659e+06  6.822826e+06  6.524798e+13
B:6:9 571 82224 9  -4.053315e+06  5.472202e+05  4.016345e+06  7.698153e+06  5.392593e+06  6.526051e+06  5.867845e+13
B:6:9 572 82368 9  -4.557170e+06  5.561956e+05  3.668159e+06  7.970633e+06  5.952307e+06  7.168587e+06  7.712626e+13
B:6:9 573 82512 9  -5.068144e+06  2.707123e+06  5.328554e+06  9.604708e+06  6.956428e+06  8.296652e+06  1.066784e+14
B:6:9 574 82656 9  -4.620246e+06  1.865949e+06  5.055495e+06  8.718152e+06  6.031988e+06  7.044903e+06  6.631399e+13
B:6:9 575 82800 9  -4.525420e+06  -2.119112e+04  3.138601e+06  7.632789e+06  5.969183e+06  7.261697e+06  8.581860e+13
B:6:9 576 82944 9  -4.856508e+06  1.302605e+06  4.151158e+06  8.853186e+06  6.389730e+06  7.938502e+06  8.929554e+13
B:6:9 577 83088 9  -4.689157e+06  3.106545e+06  6.182787e+06  9.682265e+06  6.443326e+06  7.455662e+06  7.547049e+13
B:6:9 578 83232 9  -4.777289e+06  2.014662e+06  5.400105e+06  8.778599e+06  6.354594e+06  7.066577e+06  6.917992e+13
B:6:9 579 83376 9  -3.889786e+06  2.809775e+06  6.173566e+06  8.361959e+06  5.324328e+06  5.976373e+06  4.870729e+13
B:6:9 580 83520 9  -4.821023e+06  7.666008e+05  3.641348e+06  8.090033e+06  6.136198e+06  7.498774e+06  8.886204e+13
B:6:9 581 83664 9  -4.832199e+06  2.699553e+06  5.295715e+06  7.654856e+06  5.441515e+06  5.841055e+06  4.625651e+13
B:6:9 582 83808 9  -4.221044e+06  9.361072e+05  4.646913e+06  7.692577e+06  5.551257e+06  6.318959e+06  5.429907e+13
B:6:9 583 83952 9  -3.565927e+06  7.428966e+06  6.872028e+06  9.619979e+06  6.071530e+06  6.467557e+06  7.051666e+13
B:6:9 584 84096 9  -4.816086e+06  8.911739e+05  3.568644e+06  7.717368e+06  6.024002e+06  7.067892e+06  7.953439e+13
B:6:9 585 84240 9  -4.138029e+06  1.634821e+06  4.946720e+06  7.853915e+06  5.377955e+06  6.188142e+06  5.077782e+13
B:6:9 586 84384 9  -4.398400e+06  5.390265e+05  3.878416e+06  7.559494e+06  5.619030e+06  6.553074e+06  6.166155e+13
B:6:9 587 84528 9  -5.007212e+06  -3.358771e+05  2.300031e+06  6.801863e+06  5.646097e+06  6.825962e+06  8.082428e+13
B:6:9 588 84672 9  -4.085247e+06  2.164278e+06  5.622683e+06  8.094150e+06  5.178866e+06  6.045328e+06  4.649380e+13
B:6:9 589 84816 9  -8.477876e+05  2.169585e+05  -1.591336e+05  1.211904e+05  2.569104e+04  2.141203e+05  4.884783e+12
B:6:9 590 84960 9  -4.448602e+06  7.262693e+04  3.004508e+06  7.310231e+06  5.445545e+06  6.759961e+06  6.815420e+13
B:6:9 591 85104 9  -4.206349e+06  2.892204e+06  5.966551e+06  8.212592e+06  5.398353e+06  5.951295e+06  4.734364e+13
B:6:9 592 85248 9  -4.228877e+06  3.834025e+06  6.191589e+06  8.471981e+06  5.724527e+06  6.109421e+06  5.340141e+13
B:6:9 593 85392 9  -4.231256e+06  6.219575e+06  6.298235e+06  9.228946e+06  6.068551e+06  6.455427e+06  6.701688e+13
B:6:9 594 85536 9  -4.236202e+06  2.309326e+06  5.630474e+06  7.941152e+06  5.319027e+06  5.826344e+06  4.488644e+13
B:6:9 595 85680 9  -4.178140e+06  -6.907653e+05  1.922211e+06  6.586294e+06  5.182114e+06  6.595369e+06  7.371152e+13
B:6:9 596 85824 9  -5.135800e+06  5.685268e+05  3.054043e+06  6.915884e+06  5.700927e+06  6.603676e+06  7.351161e+13
B:6:9 597 85968 9  -5.596783e+06  5.859520e+06  6.437832e+06  1.030531e+07  7.322162e+06  8.421245e+06  1.142494e+14
B:6:9 598 86112 9  -4.216152e+06  3.195727e+06  5.939231e+06  7.889994e+06  5.204155e+06  5.534509e+06  4.067508e+13
B:6:9 599 86256 9  -4.005478e+06  4.860038e+06  4.424347e+06  7.930266e+06  5.426792e+06  5.722469e+06  5.136758e+13
B:6:9 600 86400 9  -5.147711e+06  7.041303e+04  3.194844e+06  6.951416e+06  5.828896e+06  6.526817e+06  6.964598e+13
B:6:9 601 86544 9  -4.403832e+06  1.849428e+06  5.051632e+06  8.077448e+06  5.812924e+06  6.527053e+06  5.621489e+13
B:6:9 602 86688 9  -5.586002e+06  3.556804e+06  4.628489e+06  8.667979e+06  6.627254e+06  7.815337e+06  1.039823e+14
B:6:9 603 86832 9  -4.252072e+06  4.704870e+06  5.006319e+06  7.773180e+06  5.613009e+06  5.865209e+06  5.509443e+13
B:6:9 604 86976 9  -1.396226e+04  1.298858e+05  -2.168287e+04  5.369875e+04  -5.423300e+04  2.033292e+04  1.622987e+12
B:6:9 605 87120 9  5.649334e+05  1.409300e+06  -5.813757e+05  7.309760e+05  4.011587e+04  1.635002e+05  2.271631e+14
B:6:9 606 87264 9  -4.548494e+06  5.258521e+06  6.786476e+06  9.337263e+06  6.436074e+06  6.829441e+06  7.281934e+13
B:6:9 607 87408 9  7.852676e+05  -3.520536e+05  8.318840e+05  1.697419e+05  5.159063e+05  2.236087e+05  3.670804e+13
B:6:9 608 87552 9  -4.679607e+06  2.968406e+05  3.203185e+06  7.431785e+06  5.902169e+06  6.949299e+06  7.768118e+13
B:6:9 609 87696 9  -5.481478e+06  3.393045e+06  4.772783e+06  8.905467e+06  6.850260e+06  7.876625e+06  1.048668e+14
B:6:9 610 87840 9  -4.928434e+06  3.703879e+06  5.634149e+06  9.074050e+06  6.576040e+06  7.372209e+06  8.640258e+13
B:6:9 611 87984 9  -4.278818e+06  2.743301e+05  3.572993e+06  7.495660e+06  5.535094e+06  6.774437e+06  6.588378e+13
B:6:9 612 88128 9  -4.336557e+06  4.162181e+05  3.477626e+06  7.522839e+06  5.794158e+06  6.802114e+06  7.455350e+13
B:6:9 613 88272 9  -1.427482e+06  -8.377865e+05  1.006775e+05  -5.311314e+05  -4.486759e+05  -1.156329e+06  2.548925e+14
B:6:9 614 88416 9  -3.963375e+06  4.020906e+06  6.672770e+06  7.986140e+06  5.059900e+06  5.280057e+06  3.832259e+13
B:6:9 615 88560 9  -4.650101e+06  2.013199e+06  4.316729e+06  8.272979e+06  5.959884e+06  6.938312e+06  6.728803e+13
B:6:9 616 88704 9  -4.793158e+06  5.935426e+05  3.895039e+06  7.575355e+06  5.900859e+06  6.786385e+06  6.664227e+13
B:6:9 617 88848 9  -4.912719e+06  1.368524e+06  4.109838e+06  7.400598e+06  5.714444e+06  6.241396e+06  5.584958e+13
B:6:9 618 88992 9  -4.582504e+06  -2.668200e+05  2.771330e+06  7.186780e+06  5.467891e+06  6.830238e+06  7.265039e+13
B:6:9 619 89136 9  -4.587576e+06  3.765524e+05  3.505466e+06  7.915296e+06  6.156352e+06  7.301146e+06  8.737144e+13
B:6:9 620 89280 9  -4.612073e+06  4.002557e+06  6.691916e+06  9.033699e+06  5.896784e+06  6.343073e+06  5.467416e+13
B:6:9 621 89424 9  -4.938896e+06  6.843324e+06  7.391873e+06  1.024750e+07  7.026361e+06  7.660310e+06  9.199813e+13
R: 6 9 9.199813e+13 B:6:9 622 89568 9  -5.668147e+06  1.148192e+06  3.423721e+06  7.735541e+06  6.385039e+06  7.418296e+06  9.715326e+13
B:6:9 623 89712 9  -5.388689e+06  2.188741e+06  4.795193e+06  9.360276e+06  6.912884e+06  8.153678e+06  1.012841e+14
B:6:9 624 89856 9  -4.601385e+06  1.800487e+06  5.261394e+06  8.616582e+06  5.834583e+06  6.779403e+06  6.114623e+13
B:6:9 625 90000 9  -5.535041e+06  2.458945e+06  3.947819e+06  8.217506e+06  6.634261e+06  7.552273e+06  1.017748e+14
B:6:9 626 90144 9  -4.627102e+06  5.905352e+06  7.532243e+06  9.937792e+06  6.561695e+06  7.320199e+06  8.015729e+13
B:6:9 627 90288 9  -3.964127e+06  4.255859e+06  7.105793e+06  9.075857e+06  5.546877e+06  6.126255e+06  5.244679e+13
B:6:9 628 90432 9  -6.005949e+06  2.118475e+06  4.205478e+06  8.931343e+06  6.750359e+06  7.870185e+06  9.367977e+13
B:6:9 629 90576 9  -5.015432e+06  2.458646e+06  5.472170e+06  9.093962e+06  6.546879e+06  7.382168e+06  7.679375e+13
B:6:9 630 90720 9  -4.456876e+06  3.582371e+06  6.440970e+06  8.710749e+06  5.836389e+06  6.246802e+06  5.425824e+13
B:6:9 631 90864 9  -4.658323e+06  3.727211e+06  6.466623e+06  9.116038e+06  6.056068e+06  6.679507e+06  6.065903e+13
B:6:9 632 91008 9  -3.461083e+06  9.880311e+05  -3.464086e+06  1.121675e+06  7.505853e+05  -2.762522e+06  2.661856e+14
B:6:9 633 91152 9  -4.685481e+06  3.016636e+06  5.951366e+06  8.408482e+06  5.736666e+06  6.187235e+06  5.114394e+13
B:6:9 634 91296 9  1.227160e+04  -9.910777e+04  -8.630472e+04  -1.456591e+05  -2.100434e+05  -1.334046e+05  3.362636e+12
B:6:9 635 91440 9  -4.654389e+06  3.915982e+06  6.236377e+06  9.201568e+06  5.954809e+06  6.737842e+06  6.036110e+13
B:6:9 636 91584 9  -5.084821e+06  5.511497e+05  3.180634e+06  8.282635e+06  6.169201e+06  7.767254e+06  9.506189e+13
B:6:9 637 91728 9  -4.199035e+06  6.100185e+05  3.061175e+06  6.851156e+06  5.237589e+06  6.268689e+06  6.051128e+13
B:6:9 638 91872 9  -4.449879e+06  1.485426e+06  4.262563e+06  7.877005e+06  5.682777e+06  6.616468e+06  6.188423e+13
B:6:9 639 92016 9  -5.168960e+06  -8.464612e+05  5.538174e+05  6.080546e+06  5.849754e+06  7.624548e+06  1.597279e+14
B:6:9 640 92160 9  -5.224580e+06  6.983168e+05  3.647319e+06  8.392957e+06  6.413124e+06  7.803409e+06  9.457221e+13
B:6:9 641 92304 9  -4.356256e+06  -9.476747e+05  1.581856e+06  6.741027e+06  5.390360e+06  7.141021e+06  9.157502e+13
B:6:9 642 92448 9  -6.051244e+06  3.718354e+06  5.248739e+06  9.928973e+06  7.542414e+06  9.025663e+06  1.407212e+14
B:6:9 643 92592 9  -4.449883e+06  2.917629e+06  6.002416e+06  9.290464e+06  6.302919e+06  7.212820e+06  7.489887e+13
B:6:9 644 92736 9  -4.915183e+06  7.039120e+06  7.906188e+06  1.114332e+07  7.314282e+06  7.942575e+06  9.862235e+13
B:6:9 645 92880 9  -4.487185e+06  2.330783e+06  5.350484e+06  8.434092e+06  5.743488e+06  6.484911e+06  5.334292e+13
B:6:9 646 93024 9  -4.839539e+06  4.910051e+05  3.390345e+06  7.827845e+06  6.060669e+06  7.232576e+06  8.366362e+13
B:6:9 647 93168 9  -5.246530e+06  3.500018e+06  4.533795e+06  8.709815e+06  6.592555e+06  7.505549e+06  9.155245e+13
B:6:9 648 93312 9  -4.566728e+06  7.018574e+06  6.337405e+06  1.026383e+07  6.824256e+06  7.457850e+06  8.836194e+13
B:6:9 649 93456 9  -4.438455e+06  4.906149e+06  7.367352e+06  9.550486e+06  6.160970e+06  6.603307e+06  6.586448e+13
B:6:9 650 93600 9  -4.686295e+06  9.193714e+05  4.242530e+06  8.064155e+06  5.865347e+06  6.912034e+06  6.702459e+13
B:6:9 651 93744 9  -4.741653e+06  7.919992e+05  4.259225e+06  8.530656e+06  5.999469e+06  7.366586e+06  7.401130e+13
B:6:9 652 93888 9  -4.136949e+06  3.827174e+06  7.185837e+06  8.681632e+06  5.491550e+06  5.797725e+06  4.778981e+13
B:6:9 653 94032 9  -5.253122e+06  6.407921e+05  3.279976e+06  7.685473e+06  6.314334e+06  7.380161e+06  9.422681e+13
B:6:9 654 94176 9  -5.065388e+06  1.472515e+06  4.576338e+06  8.089378e+06  6.300725e+06  6.994336e+06  7.337479e+13
B:6:9 655 94320 9  -5.052007e+06  1.311491e+06  4.338890e+06  8.558037e+06  6.504098e+06  7.462511e+06  8.792001e+13
B:6:9 656 94464 9  -4.664138e+06  2.873001e+06  5.735443e+06  8.252652e+06  5.435723e+06  5.913741e+06  4.609664e+13
B:6:9 657 94608 9  -4.694233e+06  2.813880e+04  3.118166e+06  7.513076e+06  5.819409e+06  7.060015e+06  7.642703e+13
B:6:9 658 94752 9  -4.838140e+06  4.001528e+06  5.377943e+06  8.284309e+06  5.976505e+06  6.184756e+06  5.645686e+13
B:6:9 659 94896 9  -4.667053e+06  5.141537e+04  3.293990e+06  7.711996e+06  5.694496e+06  7.093104e+06  7.555481e+13
B:6:9 660 95040 9  -3.468310e+06  9.548650e+06  7.349384e+06  1.066960e+07  6.459352e+06  7.168209e+06  8.908505e+13
B:6:9 661 95184 9  -4.519316e+06  2.768943e+06  5.892963e+06  8.576181e+06  5.747896e+06  6.473345e+06  5.607615e+13
B:6:9 662 95328 9  8.869547e+05  7.265554e+05  9.350263e+05  1.593195e+05  5.873248e+05  -5.653732e+04  1.802112e+14
B:6:9 663 95472 9  -4.933535e+06  8.067981e+05  4.122339e+06  7.844493e+06  6.248436e+06  7.003719e+06  7.635461e+13
B:6:9 664 95616 9  -5.277742e+06  3.405017e+05  2.979163e+06  7.008462e+06  6.122841e+06  6.834771e+06  8.452222e+13
B:6:9 665 95760 9  -5.187527e+06  4.065646e+05  3.472550e+06  8.110466e+06  6.233871e+06  7.571340e+06  9.111086e+13
B:6:9 666 95904 9  -4.520205e+06  1.792080e+05  3.126089e+06  7.311156e+06  5.646048e+06  6.805154e+06  7.241083e+13
B:6:9 667 96048 9  -4.300885e+06  3.062939e+06  6.327272e+06  8.363711e+06  5.578742e+06  6.012031e+06  4.822369e+13
B:6:9 668 96192 9  -5.271554e+06  8.721975e+04  2.547064e+06  6.897200e+06  5.995693e+06  6.824989e+06  8.571058e+13
B:6:9 669 96336 9  -5.079589e+06  2.940513e+05  2.945276e+06  7.343941e+06  5.913652e+06  7.012486e+06  8.163699e+13
B:6:9 670 96480 9  -4.266354e+06  2.088378e+06  5.669903e+06  8.183882e+06  5.401919e+06  6.139233e+06  4.615046e+13
B:6:9 671 96624 9  -4.552288e+06  3.206545e+06  6.409725e+06  8.648256e+06  5.740207e+06  6.205007e+06  5.261561e+13
B:6:9 672 96768 9  -4.553721e+06  1.242784e+06  4.595816e+06  7.864651e+06  5.475492e+06  6.414280e+06  5.331290e+13
B:6:9 673 96912 9  -5.327609e+06  3.986705e+06  5.854572e+06  9.229998e+06  6.730267e+06  7.451238e+06  8.307811e+13
B:6:9 674 97056 9  -5.253106e+06  3.265837e+06  5.624721e+06  8.119632e+06  5.920948e+06  5.994185e+06  5.057930e+13
B:6:9 675 97200 9  -4.927806e+06  8.203808e+05  3.724088e+06  7.792058e+06  6.248597e+06  7.045960e+06  8.114162e+13
B:6:9 676 97344 9  -4.562558e+06  1.556874e+06  4.275820e+06  7.841220e+06  5.769589e+06  6.579535e+06  6.195394e+13
B:6:9 677 97488 9  -4.362055e+06  1.831558e+06  5.019170e+06  7.968554e+06  5.642504e+06  6.269716e+06  5.392923e+13
B:6:9 678 97632 9  -4.242926e+06  -6.951742e+05  2.472826e+06  6.621833e+06  5.302980e+06  6.485129e+06  6.947875e+13
B:6:9 679 97776 9  -1.500212e+06  -1.168138e+06  7.457673e+05  -1.237406e+06  -2.620291e+05  -1.540592e+06  2.204360e+14
B:6:9 680 97920 9  -3.019525e+04  -1.803345e+05  -1.749558e+05  -1.690220e+05  -2.413221e+05  -2.279827e+05  4.360205e+12
B:6:9 681 98064 9  -4.388647e+06  2.974289e+06  6.213249e+06  8.627327e+06  5.825571e+06  6.329844e+06  5.564343e+13
B:6:9 682 98208 9  -5.789766e+04  -3.304874e+04  2.601638e+04  -1.939002e+05  7.311545e+03  -2.723435e+05  1.984860e+12
B:6:9 683 98352 9  -4.181813e+06  2.247486e+06  5.604665e+06  7.958529e+06  5.421100e+06  5.866798e+06  4.630595e+13
B:6:9 684 98496 9  -2.247885e+06  5.504338e+05  -9.273518e+05  1.915203e+06  -2.718090e+06  1.456748e+06  2.061298e+14
B:6:9 685 98640 9  3.067435e+05  1.231272e+05  3.916860e+05  9.357341e+04  3.805973e+05  -3.461071e+02  2.625622e+13
B:6:9 686 98784 9  9.288941e+05  -6.410467e+05  7.950080e+05  -5.482682e+05  7.900356e+05  -2.505163e+05  3.777078e+14
B:6:9 687 98928 9  1.542836e+04  5.165133e+05  8.895658e+04  3.615817e+05  1.196275e+05  2.785628e+05  1.017347e+12
B:6:9 688 99072 9  -3.944121e+06  1.608524e+06  5.240927e+06  7.731989e+06  5.223446e+06  5.967846e+06  4.763224e+13
B:6:9 689 99216 9  -1.708418e+06  -4.712472e+05  -2.519948e+05  -1.344445e+06  -9.201653e+05  -1.477512e+06  3.013207e+14
B:6:9 690 99360 9  6.685909e+05  -5.313374e+04  1.924757e+05  2.461908e+05  3.311676e+05  4.693901e+05  3.043034e+13
B:6:9 691 99504 9  4.497587e+05  5.787191e+05  7.729389e+04  6.456273e+05  -9.810290e+04  5.072529e+05  7.081402e+12
B:6:9 692 99648 9  -6.031888e+05  3.538822e+04  -1.249679e+05  9.744690e+04  -4.339248e+03  9.738086e+04  6.520092e+11
B:6:9 693 99792 9  -5.560493e+06  1.534863e+06  3.387021e+06  8.040767e+06  6.685130e+06  7.728694e+06  1.103654e+14
B:6:9 694 99936 9  -4.730630e+06  1.166028e+06  4.663824e+06  8.596190e+06  6.217244e+06  7.320650e+06  7.715560e+13
B:6:9 695 100080 9  -4.109999e+06  1.896793e+06  5.464814e+06  7.915097e+06  4.978057e+06  5.884600e+06  4.355192e+13
B:6:9 696 100224 9  -5.065902e+06  1.137260e+06  4.177904e+06  7.919019e+06  6.145120e+06  6.952505e+06  6.954624e+13
B:6:9 697 100368 9  -5.496069e+06  3.286112e+06  5.622831e+06  1.022488e+07  7.423079e+06  8.672542e+06  1.131959e+14
B:6:9 698 100512 9  -4.003399e+06  5.160583e+06  7.139974e+06  9.048037e+06  5.529070e+06  6.000073e+06  5.126033e+13
B:6:9 699 100656 9  -4.981453e+02  3.652570e+04  -5.166835e+04  -7.323235e+04  -3.909899e+04  -5.634763e+04  2.444483e+12
B:6:9 700 100800 9  -4.337666e+06  3.395877e+06  6.702904e+06  8.958563e+06  5.883824e+06  6.456125e+06  5.472840e+13
B:6:9 701 100944 9  -5.009947e+06  2.499266e+06  5.730165e+06  9.427767e+06  6.283249e+06  7.419715e+06  7.014710e+13
B:6:9 702 101088 9  -3.519658e+06  -1.799935e+06  -3.833055e+06  2.915830e+05  1.820108e+06  4.163429e+06  2.120551e+14
B:6:9 703 101232 9  -4.862009e+06  1.419960e+06  4.655611e+06  8.368508e+06  6.240837e+06  7.141242e+06  7.298632e+13
B:6:5 704 101376 5  4.427048e+06  1.364245e+07  5.974760e+06  8.447781e+06  2.168561e+06  3.614825e+06  7.829326e+13
B:6:9 705 101520 9  -7.166930e+06  -5.616456e+05  -2.427918e+05  5.720706e+06  5.773136e+06  8.749497e+06  3.206075e+14
B:6:9 706 101664 9  -4.558967e+06  5.320296e+06  5.248465e+06  9.423078e+06  6.594026e+06  7.392062e+06  8.835187e+13
B:6:9 707 101808 9  -4.923991e+06  2.016173e+06  3.940455e+06  7.850097e+06  6.158139e+06  7.004621e+06  7.989044e+13
B:6:9 708 101952 9  -4.024243e+06  3.999832e+06  6.943404e+06  8.922092e+06  5.678098e+06  6.080660e+06  5.739200e+13
B:6:9 709 102096 9  -5.110900e+06  6.496012e+05  3.697525e+06  8.564003e+06  6.412244e+06  7.760069e+06  9.208322e+13
B:6:9 710 102240 9  -4.337732e+06  3.620709e+06  6.645318e+06  8.757898e+06  5.591347e+06  6.046099e+06  5.184711e+13
B:6:9 711 102384 9  -3.632371e+06  4.669276e+06  7.556041e+06  8.593544e+06  4.871091e+06  5.325364e+06  4.456898e+13
B:6:9 712 102528 9  -7.655822e+05  -4.130880e+05  -5.470472e+05  -2.178891e+05  -2.945964e+05  -8.751847e+04  7.274520e+12
B:6:9 713 102672 9  -3.736816e+06  7.901877e+06  6.773988e+06  1.023669e+07  6.141191e+06  6.723065e+06  7.318383e+13
B:6:9 714 102816 9  -5.004112e+06  2.998514e+05  3.136710e+06  7.360083e+06  6.081326e+06  7.124287e+06  8.692166e+13
B:6:9 715 102960 9  -4.982966e+06  2.294374e+06  5.475593e+06  8.893409e+06  6.427682e+06  7.325395e+06  7.368609e+13
B:6:9 716 103104 9  -5.024531e+06  1.666636e+06  4.859545e+06  8.908662e+06  6.534259e+06  7.578780e+06  8.029581e+13
B:6:9 717 103248 9  -3.950049e+06  4.553438e+06  7.263935e+06  8.648350e+06  5.285813e+06  5.559355e+06  4.686314e+13
B:6:9 718 103392 9  -3.950707e+06  3.568024e+06  6.723235e+06  8.161685e+06  5.317328e+06  5.474655e+06  4.446171e+13
B:6:9 719 103536 9  -4.113588e+06  3.043563e+06  6.557710e+06  8.749895e+06  5.547924e+06  6.158229e+06  5.222007e+13
B:6:9 720 103680 9  -5.429328e+06  5.518989e+06  6.209833e+06  1.037027e+07  7.427950e+06  8.421421e+06  1.161741e+14
B:6:9 721 103824 9  -4.689926e+06  1.836545e+06  5.073031e+06  8.306842e+06  6.072385e+06  6.646918e+06  6.256792e+13
B:6:9 722 103968 9  -4.453459e+06  3.506239e+06  6.497118e+06  8.376531e+06  5.658169e+06  5.957830e+06  4.688262e+13
B:6:9 723 104112 9  -5.410872e+06  1.425058e+06  3.670476e+06  8.263715e+06  6.375420e+06  7.192667e+06  8.062168e+13
B:6:9 724 104256 9  -4.749214e+06  8.263012e+04  3.022550e+06  7.890270e+06  6.030262e+06  7.500890e+06  8.854144e+13
B:6:9 725 104400 9  -4.938593e+06  2.115933e+06  5.191173e+06  8.943478e+06  6.495140e+06  7.560028e+06  8.411068e+13
B:6:9 726 104544 9  -4.469032e+06  8.524514e+05  4.088389e+06  7.876675e+06  5.589695e+06  6.682470e+06  6.076596e+13
B:6:9 727 104688 9  -4.749080e+06  3.040269e+06  6.241082e+06  9.386203e+06  6.271303e+06  7.183273e+06  7.226623e+13
B:6:9 728 104832 9  -5.146870e+06  3.967289e+06  5.620031e+06  9.351125e+06  6.780995e+06  7.642442e+06  8.838986e+13
B:6:9 729 104976 9  -4.430049e+06  3.287590e+05  3.916503e+06  7.337470e+06  5.714478e+06  6.385563e+06  6.183390e+13
B:6:9 730 105120 9  -4.635288e+06  1.960773e+05  3.559274e+06  7.308508e+06  5.928635e+06  6.637547e+06  7.103870e+13
B:6:9 731 105264 9  -5.086726e+06  4.359537e+06  5.443459e+06  9.052009e+06  6.698414e+06  7.160542e+06  8.006547e+13
B:6:9 732 105408 9  -4.816511e+06  1.439632e+06  4.696129e+06  8.753179e+06  6.209039e+06  7.445673e+06  7.856687e+13
B:6:9 733 105552 9  -4.267342e+06  2.744568e+06  5.667429e+06  8.003221e+06  5.188477e+06  5.777950e+06  4.487999e+13
B:6:9 734 105696 9  -4.238054e+06  1.495040e+06  4.803193e+06  7.982664e+06  5.361514e+06  6.317120e+06  5.209519e+13
B:6:9 735 105840 9  -4.544277e+06  1.499014e+06  4.875937e+06  8.284941e+06  5.828583e+06  6.773724e+06  6.162373e+13
B:6:9 736 105984 9  -4.925228e+06  1.983811e+06  4.669460e+06  8.208010e+06  5.880550e+06  6.479060e+06  5.673542e+13
B:6:9 737 106128 9  -4.360400e+06  7.301592e+05  4.036683e+06  7.512957e+06  5.580173e+06  6.388341e+06  5.706412e+13
B:6:9 738 106272 9  -4.622405e+06  7.629852e+05  4.100402e+06  7.699080e+06  5.850845e+06  6.595721e+06  6.326982e+13
B:6:9 739 106416 9  -4.691922e+06  6.969403e+05  3.692052e+06  7.857732e+06  5.981323e+06  7.148373e+06  7.818041e+13
B:6:9 740 106560 9  -4.891229e+06  3.611925e+06  5.821525e+06  8.832942e+06  6.093127e+06  6.675754e+06  6.198627e+13
B:6:9 741 106704 9  -4.885928e+06  1.054979e+06  3.797687e+06  7.185042e+06  5.605386e+06  6.268916e+06  5.967944e+13
B:6:9 742 106848 9  -4.385836e+06  -2.458893e+05  2.985153e+06  7.364912e+06  5.713257e+06  6.945569e+06  7.795564e+13
B:6:9 743 106992 9  -3.935804e+06  4.693218e+06  6.052356e+06  8.013247e+06  5.266926e+06  5.406044e+06  4.464103e+13
B:6:9 744 107136 9  -4.300095e+06  7.368547e+05  4.171161e+06  7.480699e+06  5.442134e+06  6.300516e+06  5.373622e+13
B:6:9 745 107280 9  -4.846630e+06  4.126295e+05  3.016508e+06  7.230895e+06  5.759639e+06  6.898805e+06  7.667009e+13
R: 6 9 7.667009e+13 3.16B:6:9 746 107424 9  -4.876722e+06  2.500213e+06  5.267897e+06  8.420156e+06  6.094736e+06  6.664863e+06  6.164997e+13
B:6:9 747 107568 9  -4.508526e+06  1.536160e+06  4.984112e+06  8.141341e+06  5.670340e+06  6.516868e+06  5.538711e+13
B:6:9 748 107712 9  5.213319e+05  2.081956e+05  5.261849e+04  1.661948e+05  7.169243e+04  2.003923e+05  5.635236e+11
B:6:9 749 107856 9  -4.523774e+06  5.607679e+05  3.694274e+06  7.531777e+06  5.711941e+06  6.763792e+06  6.724477e+13
B:6:9 750 108000 9  -5.311739e+06  -3.988897e+05  2.791047e+06  6.986271e+06  5.926214e+06  6.857537e+06  7.961668e+13
B:6:9 751 108144 9  -4.868397e+06  3.728071e+06  6.391417e+06  8.658708e+06  5.898092e+06  6.202931e+06  5.197114e+13
B:6:9 752 108288 9  -4.599650e+06  9.648830e+05  3.982966e+06  7.637990e+06  5.729757e+06  6.686318e+06  6.407075e+13
B:6:9 753 108432 9  -4.096914e+06  3.503120e+06  6.168166e+06  8.086813e+06  5.213480e+06  5.591880e+06  4.167543e+13
B:6:9 754 108576 9  -4.660622e+06  2.563519e+06  5.681309e+06  8.613299e+06  6.028424e+06  6.743715e+06  6.059011e+13
B:6:9 755 108720 9  -4.646849e+06  2.444397e+06  5.523360e+06  8.497313e+06  5.960624e+06  6.555953e+06  5.905263e+13
B:6:9 756 108864 9  -3.372332e+06  3.824617e+06  6.738891e+06  7.307474e+06  4.298665e+06  4.364265e+06  3.448011e+13
B:6:9 757 109008 9  -4.324006e+06  1.719966e+06  4.906985e+06  8.038249e+06  5.334968e+06  6.376789e+06  5.346773e+13
B:6:9 758 109152 9  -5.283902e+06  3.140236e+06  5.333679e+06  9.481138e+06  6.843671e+06  8.082800e+06  9.684619e+13
B:6:9 759 109296 9  -4.659868e+06  3.145150e+05  3.311407e+06  7.501252e+06  5.796434e+06  6.882213e+06  7.319105e+13
B:6:9 760 109440 9  -4.155255e+06  3.851471e+06  6.095454e+06  7.885454e+06  5.273254e+06  5.380214e+06  4.049533e+13
B:6:9 761 109584 9  -4.485758e+06  2.905342e+06  5.608346e+06  8.388898e+06  5.648128e+06  6.232545e+06  5.065656e+13
B:6:9 762 109728 9  -4.595963e+06  1.967747e+06  5.104297e+06  8.328268e+06  5.864313e+06  6.678302e+06  5.981908e+13
B:6:9 763 109872 9  -4.523643e+06  5.699683e+05  3.710999e+06  7.647036e+06  5.638905e+06  6.752083e+06  6.513363e+13
B:6:9 764 110016 9  -4.378621e+06  1.671804e+06  4.751688e+06  7.626226e+06  5.325043e+06  6.048634e+06  4.906703e+13
B:6:9 765 110160 9  -3.330877e+06  4.822129e+06  7.074687e+06  7.639868e+06  4.195732e+06  4.487819e+06  3.589471e+13
B:6:9 766 110304 9  -4.513021e+06  2.364720e+05  3.171706e+06  7.554145e+06  5.609349e+06  6.991835e+06  7.452307e+13
B:6:9 767 110448 9  -3.998084e+06  4.925901e+06  6.614143e+06  8.371613e+06  5.406632e+06  5.508186e+06  4.820888e+13
B:6:9 768 110592 9  -4.298569e+06  1.757881e+06  4.644484e+06  7.567277e+06  5.457090e+06  6.083267e+06  5.040588e+13
B:6:9 769 110736 9  -5.673427e+06  5.268295e+06  5.454201e+06  9.844958e+06  7.355374e+06  8.736756e+06  1.397207e+14
B:6:9 770 110880 9  -1.727811e+05  -1.331395e+05  -4.883185e+04  -2.396028e+05  -3.663049e+04  -2.078716e+05  2.348254e+12
B:6:9 771 111024 9  -1.549381e+04  -3.246899e+05  -1.536200e+05  -3.684202e+05  -1.431745e+05  -3.811938e+05  6.110811e+12
B:6:9 772 111168 9  6.856131e+05  4.357163e+05  3.501642e+05  8.591189e+05  4.896020e+05  9.320419e+05  4.303589e+13
B:6:9 773 111312 9  5.450222e+04  -2.648100e+04  -3.167737e+03  -6.177873e+04  -4.787161e+04  -7.890675e+04  1.405672e+12
B:6:9 774 111456 9  -5.289269e+06  1.933013e+05  3.142670e+06  7.449679e+06  6.007129e+06  7.056612e+06  7.833876e+13
B:6:9 775 111600 9  -6.990109e+04  -1.473109e+05  -1.143878e+05  -2.415475e+05  -1.415654e+05  -2.112297e+05  1.516258e+12
B:6:9 776 111744 9  -4.027817e+06  3.443350e+06  6.407219e+06  8.097138e+06  5.214716e+06  5.522505e+06  4.454792e+13
B:6:9 777 111888 9  3.000539e+04  3.893362e+04  -1.853583e+05  -9.755063e+04  -2.158929e+05  -1.249578e+05  3.367140e+12
B:6:9 778 112032 9  -4.723981e+06  -3.886609e+04  2.968144e+06  7.523279e+06  5.706430e+06  7.071149e+06  7.704202e+13
B:6:9 779 112176 9  -4.346688e+06  -6.998008e+05  1.948257e+06  6.867961e+06  5.248205e+06  6.876782e+06  7.964988e+13
B:6:9 780 112320 9  -4.310563e+06  1.484779e+05  3.528004e+06  7.483662e+06  5.675236e+06  6.853464e+06  7.026101e+13
B:6:9 781 112464 9  -4.326568e+06  2.291460e+06  5.752435e+06  8.351820e+06  5.468237e+06  6.255827e+06  5.063396e+13
B:6:9 782 112608 9  -4.260260e+06  3.576783e+06  6.559913e+06  8.810171e+06  5.620819e+06  6.201689e+06  5.115523e+13
B:6:9 783 112752 9  -4.579353e+06  2.013678e+06  4.992648e+06  8.108332e+06  5.845935e+06  6.561657e+06  5.960142e+13
B:6:9 784 112896 9  -2.006764e+06  -3.339387e+05  -2.399141e+06  -3.330325e+05  -9.204448e+05  -7.665436e+05  2.842722e+14
B:6:9 785 113040 9  -5.387815e+06  2.500837e+06  4.823109e+06  8.709184e+06  6.483061e+06  7.310875e+06  7.858909e+13
B:6:9 786 113184 9  -4.379860e+06  3.293810e+06  6.224510e+06  8.753697e+06  5.971623e+06  6.399401e+06  6.056376e+13
B:6:9 787 113328 9  -4.460368e+06  1.678262e+06  4.925091e+06  8.270266e+06  5.433047e+06  6.516439e+06  5.528804e+13
B:6:9 788 113472 9  -4.180691e+06  2.974224e+06  6.147186e+06  8.467171e+06  5.325965e+06  6.045476e+06  4.861464e+13
B:6:9 789 113616 9  -4.830219e+06  -1.197559e+05  3.145567e+06  7.324421e+06  5.802699e+06  6.793931e+06  7.169729e+13
B:6:9 790 113760 9  -5.055892e+06  3.561462e+06  4.450295e+06  8.409570e+06  6.458078e+06  7.216279e+06  8.936496e+13
B:6:9 791 113904 9  -4.879432e+06  1.628666e+06  4.650017e+06  8.232134e+06  6.168035e+06  6.943918e+06  6.900206e+13
B:6:9 792 114048 9  -4.787256e+06  1.720007e+06  4.712202e+06  8.259941e+06  6.063639e+06  6.897121e+06  6.695105e+13
B:6:9 793 114192 9  -4.722815e+06  8.091201e+04  3.060754e+06  7.554872e+06  5.844763e+06  7.121726e+06  7.911673e+13
B:6:9 794 114336 9  -4.992658e+06  1.289914e+06  4.520998e+06  7.698208e+06  5.559189e+06  6.293166e+06  5.002111e+13
B:6:9 795 114480 9  -5.162608e+06  3.289403e+06  5.965190e+06  9.666846e+06  6.769658e+06  7.869461e+06  9.057402e+13
B:6:9 796 114624 9  -5.106060e+06  2.227664e+06  4.942803e+06  8.355912e+06  5.945532e+06  6.543034e+06  5.759434e+13
B:6:9 797 114768 9  -4.664357e+06  1.899598e+06  5.016336e+06  7.864883e+06  5.736143e+06  6.320621e+06  5.267675e+13
B:6:9 798 114912 9  -4.307329e+06  7.970465e+06  7.391668e+06  1.029603e+07  6.755460e+06  7.192061e+06  8.728342e+13
B:6:9 799 115056 9  -5.036443e+06  9.462036e+05  3.915735e+06  7.881000e+06  6.257345e+06  7.205085e+06  8.235094e+13
B:6:9 800 115200 9  -4.775927e+06  7.001236e+06  7.391414e+06  1.056872e+07  7.099357e+06  7.698193e+06  9.582078e+13
B:6:9 801 115344 9  -5.621229e+06  2.744299e+06  4.370655e+06  8.791835e+06  6.835362e+06  8.049699e+06  1.100368e+14
B:6:9 802 115488 9  -3.663072e+06  3.781561e+06  6.870601e+06  7.848356e+06  4.466398e+06  5.047830e+06  3.788855e+13
B:6:9 803 115632 9  -4.131527e+06  3.474165e+06  6.739788e+06  8.545698e+06  5.176456e+06  5.918964e+06  4.581983e+13
B:6:9 804 115776 9  -4.502383e+06  1.013276e+06  4.457144e+06  8.011342e+06  5.697484e+06  6.682564e+06  5.907984e+13
B:6:9 805 115920 9  -4.362990e+06  4.877355e+06  6.526942e+06  9.075576e+06  6.267839e+06  6.639040e+06  7.211263e+13
B:6:9 806 116064 9  -5.036541e+06  1.616758e+06  3.509063e+06  7.757722e+06  6.049276e+06  6.850638e+06  7.569482e+13
B:6:9 807 116208 9  -4.173562e+06  3.449494e+06  6.501934e+06  8.712751e+06  5.625250e+06  6.206604e+06  5.363724e+13
B:6:9 808 116352 9  -4.147414e+06  4.094876e+06  6.822770e+06  8.389824e+06  5.240806e+06  5.574126e+06  4.293675e+13
B:6:9 809 116496 9  -4.429696e+06  4.336706e+05  3.828247e+06  7.473097e+06  5.532409e+06  6.538229e+06  6.019306e+13
B:6:9 810 116640 9  -4.726601e+06  5.502795e+05  3.409659e+06  7.559754e+06  5.748277e+06  6.888853e+06  7.062435e+13
B:6:9 811 116784 9  9.660628e+05  3.012998e+05  8.677926e+05  3.253888e+05  4.197692e+05  1.684782e+05  8.434316e+13
B:6:9 812 116928 9  -4.530020e+06  6.627266e+05  3.740915e+06  7.766340e+06  5.712260e+06  6.863151e+06  6.680837e+13
B:6:9 813 117072 9  -4.465418e+06  5.622061e+05  3.612156e+06  7.546968e+06  5.627836e+06  6.751408e+06  6.692289e+13
B:6:9 814 117216 9  -4.376508e+06  2.326275e+06  5.523548e+06  8.249694e+06  5.856589e+06  6.482104e+06  5.750561e+13
B:6:9 815 117360 9  1.207464e+06  -6.258270e+05  2.194896e+05  -3.176876e+05  8.058926e+04  -4.741255e+05  2.382213e+14
B:6:9 816 117504 9  -4.387338e+06  1.038490e+06  4.104426e+06  7.552516e+06  5.480117e+06  6.374078e+06  5.659476e+13
B:6:9 817 117648 9  -3.892288e+06  2.783868e+06  5.961440e+06  7.598603e+06  4.857124e+06  5.269475e+06  3.759300e+13
B:6:9 818 117792 9  -4.277301e+06  -2.262357e+05  2.715480e+06  7.336498e+06  5.651793e+06  6.855493e+06  7.595205e+13
B:6:9 819 117936 9  -5.180645e+06  1.351087e+06  4.375155e+06  7.605458e+06  6.018364e+06  6.421217e+06  6.088946e+13
B:6:9 820 118080 9  -4.108050e+06  3.068703e+06  6.053953e+06  8.759236e+06  6.007644e+06  6.687495e+06  6.671227e+13
B:6:9 821 118224 9  -4.545880e+06  1.047606e+06  3.772598e+06  7.621314e+06  5.806228e+06  6.653654e+06  6.733714e+13
B:6:9 822 118368 9  -5.231782e+04  -5.684889e+05  -2.234726e+05  -4.882485e+05  -1.836908e+05  -3.869845e+05  1.862106e+12
B:6:9 823 118512 9  -4.080915e+06  3.983891e+06  6.638818e+06  8.356876e+06  5.370126e+06  5.702120e+06  4.318507e+13
B:6:9 824 118656 9  -4.207037e+06  1.566457e+06  4.842491e+06  7.815614e+06  5.378977e+06  6.199209e+06  4.969038e+13
B:6:9 825 118800 9  -4.070733e+06  2.071940e+06  5.520391e+06  8.020121e+06  5.476204e+06  6.040143e+06  5.089109e+13
B:6:9 826 118944 9  -4.038173e+06  1.479211e+06  4.994287e+06  8.037928e+06  5.518174e+06  6.197623e+06  5.556731e+13
B:6:9 827 119088 9  -4.121178e+06  3.351780e+06  6.308438e+06  8.245154e+06  5.394602e+06  5.774797e+06  4.524243e+13
B:6:9 828 119232 9  -4.341043e+06  2.689203e+06  4.900968e+06  8.155233e+06  5.566080e+06  6.120241e+06  5.236677e+13
B:6:9 829 119376 9  -4.666789e+06  1.663277e+06  4.518035e+06  8.236908e+06  5.956050e+06  6.908700e+06  6.665152e+13
B:6:9 830 119520 9  -1.042796e+06  5.646579e+04  -1.722114e+05  1.377677e+05  1.400909e+05  1.488361e+05  1.768353e+12
B:6:9 831 119664 9  -4.293163e+06  2.712831e+06  5.920130e+06  8.219650e+06  5.517723e+06  6.060498e+06  4.998844e+13
B:6:9 832 119808 9  -4.231890e+06  4.118741e+06  6.196903e+06  8.416019e+06  5.399712e+06  5.693074e+06  4.433297e+13
B:6:9 833 119952 9  -4.520182e+06  2.277388e+06  5.267454e+06  8.631618e+06  6.188527e+06  7.031333e+06  7.282649e+13
B:6:9 834 120096 9  -4.302582e+06  7.039581e+06  6.367399e+06  9.955307e+06  6.499205e+06  7.013394e+06  8.090641e+13
B:6:9 835 120240 9  -5.100587e+06  1.473895e+06  2.983515e+06  7.070873e+06  5.895228e+06  6.855387e+06  8.727329e+13
B:6:9 836 120384 9  -4.618106e+06  1.728189e+06  4.677209e+06  7.941401e+06  5.940885e+06  6.585011e+06  6.320629e+13
B:6:9 837 120528 9  -4.400507e+06  1.268051e+06  4.835261e+06  7.986819e+06  5.938474e+06  6.598623e+06  6.302942e+13
B:6:9 838 120672 9  -4.690394e+06  1.075227e+06  4.576499e+06  8.073556e+06  6.091664e+06  6.857109e+06  6.772868e+13
B:6:9 839 120816 9  -4.645007e+06  2.209686e+06  4.249456e+06  7.537991e+06  5.703764e+06  6.197966e+06  5.790961e+13
B:6:9 840 120960 9  -3.814091e+06  2.833553e+06  5.884255e+06  7.925745e+06  5.067435e+06  5.583059e+06  4.140781e+13
B:6:9 841 121104 9  -4.337245e+06  6.114379e+06  7.998761e+06  1.013710e+07  6.380779e+06  6.940799e+06  7.465229e+13
B:6:9 842 121248 9  -4.443974e+06  1.709231e+06  4.952923e+06  8.363517e+06  5.746921e+06  6.744428e+06  6.006840e+13
B:6:9 843 121392 9  -5.530319e+06  1.730651e+06  3.517809e+06  7.747853e+06  6.460282e+06  7.420242e+06  1.022777e+14
B:6:9 844 121536 9  -3.380557e+04  -1.612129e+04  7.647775e+04  -2.621741e+04  2.544885e+04  -4.209009e+04  1.297642e+12
B:6:9 845 121680 9  -4.516406e+06  4.104773e+06  6.781047e+06  9.524522e+06  6.421065e+06  6.958323e+06  6.889678e+13
B:6:9 846 121824 9  -6.298438e+06  4.549116e+06  5.788310e+06  1.116691e+07  8.222909e+06  9.951630e+06  1.671582e+14
B:6:9 847 121968 9  -4.512498e+06  6.459145e+06  6.209234e+06  1.009975e+07  6.715224e+06  7.457380e+06  8.406039e+13
B:6:9 848 122112 9  -4.584175e+06  7.244340e+05  3.594397e+06  7.691358e+06  5.802305e+06  6.770332e+06  7.195818e+13
B:6:9 849 122256 9  -5.257178e+06  4.703866e+06  5.565424e+06  1.009682e+07  7.166072e+06  8.550445e+06  1.194343e+14
B:6:9 850 122400 9  -4.417012e+06  1.131027e+06  4.842503e+06  8.299185e+06  5.678902e+06  6.796190e+06  5.936904e+13
B:6:9 851 122544 9  -3.295682e+06  5.111481e+06  7.596466e+06  7.861413e+06  4.337491e+06  4.560928e+06  3.987341e+13
B:6:9 852 122688 9  -4.553798e+06  5.406364e+06  7.238100e+06  9.675825e+06  6.529325e+06  6.848654e+06  7.116130e+13
B:6:9 853 122832 9  -4.464990e+06  4.961866e+06  7.516125e+06  1.021419e+07  6.223985e+06  7.127568e+06  6.536872e+13
B:6:9 854 122976 9  -4.544277e+06  -2.440907e+05  2.656272e+06  7.640262e+06  5.886521e+06  7.472594e+06  8.990815e+13
B:6:9 855 123120 9  -4.659253e+06  9.302316e+05  4.300718e+06  7.924593e+06  5.893739e+06  6.756586e+06  6.654589e+13
B:6:9 856 123264 9  -4.623642e+06  2.700581e+06  6.050577e+06  9.288508e+06  6.055839e+06  7.105719e+06  6.563517e+13
B:6:9 857 123408 9  -4.706900e+06  3.808741e+06  6.993170e+06  9.482772e+06  6.003892e+06  6.721488e+06  6.005392e+13
B:6:9 858 123552 9  -4.381931e+06  5.937165e+05  3.554519e+06  7.772659e+06  5.564339e+06  6.879398e+06  6.819936e+13
B:6:9 859 123696 9  -4.895254e+06  8.561294e+05  3.338597e+06  8.132066e+06  6.130754e+06  7.619802e+06  9.463386e+13
B:6:9 860 123840 9  -4.728322e+06  2.428574e+06  5.604913e+06  9.372429e+06  6.486779e+06  7.586586e+06  8.565703e+13
B:6:9 861 123984 9  -4.768744e+06  1.676832e+06  5.008905e+06  8.552455e+06  6.211537e+06  6.951496e+06  6.779279e+13
B:6:9 862 124128 9  -5.362775e+06  3.597772e+06  4.405019e+06  8.020772e+06  6.171836e+06  6.444112e+06  6.527310e+13
B:6:9 863 124272 9  -5.155806e+06  2.574793e+06  4.974583e+06  9.627573e+06  6.826180e+06  8.331853e+06  1.032112e+14
B:6:9 864 124416 9  -5.019362e+06  -2.066872e+05  2.720570e+06  8.433633e+06  6.335947e+06  8.147583e+06  1.078552e+14
B:6:9 865 124560 9  -3.678349e+06  6.212333e+06  8.603293e+06  9.035334e+06  5.043521e+06  5.298136e+06  5.203405e+13
B:6:9 866 124704 9  -5.298239e+06  3.524866e+06  5.491579e+06  9.509273e+06  6.683263e+06  7.924140e+06  8.961930e+13
B:6:9 867 124848 9  -4.319217e+06  3.693473e+06  7.007107e+06  8.967931e+06  5.894778e+06  6.279852e+06  5.519528e+13
B:6:9 868 124992 9  -5.640903e+06  3.389564e+06  5.869205e+06  1.037312e+07  7.231610e+06  8.639552e+06  1.039468e+14
B:6:9 869 125136 9  -5.405460e+06  4.770912e+06  6.946712e+06  9.778727e+06  6.477520e+06  6.921616e+06  6.171778e+13
R: 6 9 6.171778e+13 1.776329B:6:9 870 125280 9  -5.184500e+06  6.275890e+05  3.378262e+06  7.832537e+06  6.112698e+06  7.025147e+06  7.749209e+13
B:6:9 871 125424 9  -4.121792e+06  3.240057e+06  6.449312e+06  8.607652e+06  5.628369e+06  6.157529e+06  5.084506e+13
B:6:9 872 125568 9  -4.664385e+06  2.529516e+06  5.677752e+06  9.124029e+06  5.951813e+06  7.112032e+06  6.425687e+13
B:6:9 873 125712 9  -5.288019e+06  3.401719e+06  5.007502e+06  8.919041e+06  6.647541e+06  7.423107e+06  8.575191e+13
B:6:9 874 125856 9  -5.495784e+06  8.318271e+05  3.723727e+06  7.730289e+06  6.111009e+06  7.047274e+06  7.705297e+13
B:6:9 875 126000 9  -4.464254e+06  2.713011e+06  5.986360e+06  8.186683e+06  5.580336e+06  5.967891e+06  4.735597e+13
B:6:9 876 126144 9  -4.849862e+06  3.842761e+06  6.469476e+06  9.066377e+06  6.110704e+06  6.589249e+06  5.834229e+13
B:6:9 877 126288 9  -5.080163e+06  3.579179e+06  6.539492e+06  9.333758e+06  6.492663e+06  7.058491e+06  6.551039e+13
B:6:9 878 126432 9  -4.443119e+06  3.145101e+06  6.413300e+06  8.426648e+06  5.560317e+06  6.043423e+06  4.844165e+13
B:6:9 879 126576 9  -4.669386e+06  6.785703e+05  3.333619e+06  7.964352e+06  5.881021e+06  7.344569e+06  7.878611e+13
B:6:9 880 126720 9  -5.510923e+06  6.853366e+06  7.437966e+06  1.122514e+07  7.633068e+06  8.700752e+06  1.203574e+14
B:6:9 881 126864 9  -4.886073e+06  1.166378e+06  4.558830e+06  8.440173e+06  6.141961e+06  7.234909e+06  7.492660e+13
B:6:9 882 127008 9  -4.625774e+06  -1.567917e+05  2.856916e+06  7.239907e+06  5.557781e+06  6.984824e+06  7.640659e+13
B:6:9 883 127152 9  -4.260532e+06  3.707943e+06  6.504766e+06  8.605789e+06  5.517754e+06  6.014672e+06  4.948326e+13
B:6:9 884 127296 9  -5.330067e+06  6.858040e+05  3.357400e+06  8.095264e+06  6.369501e+06  7.718986e+06  9.814473e+13
B:6:9 885 127440 9  -4.697780e+06  5.412264e+06  6.848176e+06  1.006861e+07  6.888925e+06  7.761493e+06  9.503985e+13
B:6:9 886 127584 9  -4.769145e+06  1.952032e+06  4.714273e+06  8.241105e+06  5.978826e+06  6.914135e+06  6.574304e+13
B:6:9 887 127728 9  -4.496789e+06  -1.690482e+05  2.824467e+06  7.375191e+06  5.645978e+06  7.007435e+06  7.679675e+13
B:6:9 888 127872 9  -4.564243e+06  3.309731e+06  6.743734e+06  8.733800e+06  5.582689e+06  6.194805e+06  4.980195e+13
B:6:9 889 128016 9  -4.961253e+06  4.386157e+06  4.963551e+06  8.928772e+06  6.541408e+06  7.497544e+06  9.418401e+13
B:6:9 890 128160 9  -4.340783e+06  2.426847e+06  5.978905e+06  8.127692e+06  5.432218e+06  6.020391e+06  4.677612e+13
B:6:9 891 128304 9  -4.687667e+06  1.569264e+06  4.334608e+06  8.417037e+06  6.072454e+06  7.213763e+06  7.732001e+13
B:6:9 892 128448 9  -4.776877e+06  4.444729e+06  4.225262e+06  8.387827e+06  6.248262e+06  7.042200e+06  8.692415e+13
B:6:9 893 128592 9  -5.350033e+06  1.114880e+06  4.065501e+06  8.451386e+06  6.377398e+06  7.702881e+06  8.734921e+13
B:6:9 894 128736 9  -5.158113e+06  -5.727370e+04  2.961873e+06  7.677580e+06  6.174773e+06  7.527534e+06  9.366639e+13
B:6:9 895 128880 9  -3.386678e+06  5.708140e+06  7.665496e+06  8.856754e+06  5.294236e+06  5.573321e+06  5.822389e+13
B:6:9 896 129024 9  -4.855590e+06  1.425718e+06  4.643517e+06  8.816683e+06  5.822087e+06  7.264890e+06  6.738503e+13
B:6:9 897 129168 9  -5.165146e+06  3.059984e+05  3.212084e+06  7.996090e+06  6.183825e+06  7.461536e+06  8.576774e+13
B:6:9 898 129312 9  -5.009434e+06  1.579480e+06  4.786706e+06  8.738079e+06  6.030049e+06  7.265347e+06  6.797029e+13
B:6:9 899 129456 9  -5.037645e+06  9.507277e+05  3.521669e+06  7.679360e+06  6.132447e+06  7.101750e+06  8.309186e+13
B:6:9 900 129600 9  -4.299309e+06  6.532552e+06  6.838440e+06  9.384519e+06  6.012681e+06  6.324461e+06  5.792767e+13
B:6:9 901 129744 9  -5.463475e+06  3.081085e+06  5.039806e+06  9.224783e+06  6.675013e+06  7.798238e+06  8.757992e+13
B:6:9 902 129888 9  -5.193691e+06  3.304798e+05  3.181317e+06  8.087299e+06  6.229421e+06  7.743408e+06  9.441737e+13
B:6:9 903 130032 9  -4.586916e+06  5.608446e+06  7.553225e+06  9.971295e+06  6.385161e+06  7.171035e+06  7.333881e+13
B:6:9 904 130176 9  -4.817607e+06  2.751660e+05  3.130455e+06  7.890364e+06  5.827926e+06  7.344179e+06  8.300281e+13
B:6:9 905 130320 9  -4.996163e+06  1.630559e+06  4.706415e+06  8.960639e+06  6.379427e+06  7.614813e+06  8.066838e+13
B:6:9 906 130464 9  -4.918602e+06  3.627142e+05  3.256427e+06  7.942083e+06  6.140354e+06  7.563841e+06  8.954782e+13
B:6:9 907 130608 9  -3.940315e+06  6.592212e+06  6.258288e+06  9.118921e+06  5.838871e+06  6.181436e+06  5.916641e+13
B:6:9 908 130752 9  -3.714380e+06  7.991394e+06  6.413161e+06  1.021735e+07  6.465884e+06  7.213935e+06  8.669468e+13
B:6:9 909 130896 9  -8.144095e+04  -1.634398e+05  1.078692e+05  -1.763526e+05  1.811111e+05  -1.826219e+05  2.741333e+12
B:6:9 910 131040 9  -3.264257e+06  4.297414e+06  6.953252e+06  7.484091e+06  4.130097e+06  4.465013e+06  3.551147e+13
B:6:9 911 131184 9  -5.230836e+06  9.762351e+05  3.904478e+06  9.056185e+06  6.498067e+06  8.180955e+06  1.021386e+14
B:6:9 912 131328 9  -4.669108e+06  2.459591e+06  5.717646e+06  9.048659e+06  6.050779e+06  7.005137e+06  6.248262e+13
B:6:9 913 131472 9  -4.752151e+06  3.279092e+06  5.391581e+06  8.564860e+06  6.040938e+06  6.696562e+06  6.192754e+13
B:6:9 914 131616 9  -3.949671e+06  3.743521e+06  6.269191e+06  8.371220e+06  5.084100e+06  5.725444e+06  4.569976e+13
B:6:9 915 131760 9  -3.875756e+06  8.380703e+06  8.129726e+06  1.057195e+07  6.513018e+06  6.986424e+06  8.318915e+13
B:6:9 916 131904 9  -4.969431e+06  2.731209e+06  5.925711e+06  9.332924e+06  6.420814e+06  7.348586e+06  7.027531e+13
B:6:9 917 132048 9  -4.599636e+06  2.724960e+06  5.641115e+06  8.920181e+06  6.081299e+06  6.994791e+06  6.369810e+13
B:6:9 918 132192 9  -4.294142e+06  3.093393e+06  6.179891e+06  8.449798e+06  5.623756e+06  6.114147e+06  5.113777e+13
B:6:9 919 132336 9  -4.949626e+06  1.484597e+06  4.464195e+06  8.682379e+06  6.332187e+06  7.460753e+06  7.879833e+13
B:6:9 920 132480 9  -4.118540e+06  5.168616e+06  8.178594e+06  9.726239e+06  5.463616e+06  6.142015e+06  6.167357e+13
B:6:9 921 132624 9  -4.518126e+06  1.188388e+06  5.000794e+06  8.543670e+06  5.824168e+06  7.022089e+06  6.436366e+13
B:6:9 922 132768 9  -4.195604e+06  5.807934e+06  7.573506e+06  9.603878e+06  5.950199e+06  6.350910e+06  6.055618e+13
B:6:9 923 132912 9  -4.703836e+06  2.008466e+06  4.804293e+06  8.939690e+06  6.427730e+06  7.491741e+06  8.029543e+13
B:6:9 924 133056 9  1.049940e+06  2.799683e+05  4.717140e+05  -9.139335e+04  3.304684e+05  -1.978913e+05  9.814208e+13
B:6:9 925 133200 9  -5.244398e+06  2.278393e+06  5.255926e+06  9.283995e+06  6.748346e+06  7.755910e+06  8.599119e+13
B:6:9 926 133344 9  -4.911717e+06  3.291026e+06  6.182464e+06  9.454532e+06  6.444638e+06  7.201383e+06  7.349775e+13
B:6:9 927 133488 9  -4.885080e+06  2.569227e+06  5.867346e+06  9.502785e+06  6.496808e+06  7.609230e+06  7.681239e+13
B:6:9 928 133632 9  -5.209069e+06  -3.155032e+05  2.915248e+06  8.110287e+06  6.313914e+06  7.873922e+06  9.900713e+13
B:6:9 929 133776 9  -4.237153e+06  2.980795e+06  6.067023e+06  8.483522e+06  5.494751e+06  6.058812e+06  4.814618e+13
B:6:9 930 133920 9  -3.828719e+06  6.612570e+06  7.010633e+06  9.101795e+06  5.656576e+06  5.870711e+06  5.740999e+13
B:6:9 931 134064 9  -4.953006e+06  3.136090e+06  5.924084e+06  9.262275e+06  6.612043e+06  7.338278e+06  7.815606e+13
B:6:9 932 134208 9  -5.179415e+06  2.804114e+06  5.755506e+06  9.292803e+06  6.591821e+06  7.250230e+06  7.132000e+13
B:6:9 933 134352 9  -4.855353e+06  4.303219e+05  3.446908e+06  7.696780e+06  6.051808e+06  7.105324e+06  7.934529e+13
B:6:9 934 134496 9  -5.628571e+05  3.825248e+05  -8.701517e+04  4.354018e+05  1.289569e+05  4.535351e+05  5.072740e+12
B:6:9 935 134640 9  -4.528544e+06  2.832087e+06  6.031095e+06  8.917984e+06  5.818121e+06  6.740245e+06  5.961759e+13
B:6:9 936 134784 9  -5.811663e+06  3.292592e+06  5.402413e+06  9.872329e+06  7.244534e+06  8.582249e+06  1.135166e+14
B:6:9 937 134928 9  -5.252471e+06  6.890331e+05  3.297047e+06  7.287245e+06  6.000438e+06  6.835334e+06  7.609045e+13
B:6:9 938 135072 9  -1.209168e+04  -7.037965e+05  -1.533289e+05  -1.371488e+06  -2.527934e+05  -8.912400e+05  2.267032e+14
B:6:9 939 135216 9  -5.061038e+06  3.889568e+06  4.347015e+06  8.562545e+06  6.482921e+06  7.211705e+06  8.855751e+13
B:6:9 940 135360 9  -5.328553e+06  -4.708617e+05  1.464504e+06  6.783450e+06  6.144290e+06  7.560753e+06  1.288849e+14
B:6:9 941 135504 9  -4.610805e+06  1.670436e+06  4.914755e+06  8.305945e+06  6.041311e+06  6.780538e+06  6.619937e+13
B:6:9 942 135648 9  -4.351741e+06  5.988734e+05  4.015706e+06  7.468390e+06  5.502190e+06  6.383099e+06  5.726459e+13
B:6:9 943 135792 9  -4.495212e+06  -1.525070e+06  4.566370e+05  5.977011e+06  5.306228e+06  7.197036e+06  1.170387e+14
B:6:9 944 135936 9  -5.581655e+06  3.498234e+06  5.283771e+06  8.421633e+06  6.051013e+06  6.359419e+06  5.524242e+13
B:6:9 945 136080 9  -4.472944e+06  2.849013e+06  5.839077e+06  8.104769e+06  5.328633e+06  5.817463e+06  4.309302e+13
B:6:9 946 136224 9  6.780670e+05  2.286591e+05  2.759892e+05  3.305638e+05  3.726740e+05  3.442693e+05  2.211617e+13
B:6:9 947 136368 9  -4.540271e+06  4.266740e+06  6.789781e+06  9.103885e+06  5.957867e+06  6.377557e+06  5.449826e+13
B:6:9 948 136512 9  -5.139611e+06  -5.440806e+05  1.363833e+06  6.352598e+06  5.712384e+06  7.267673e+06  1.173635e+14
B:6:9 949 136656 9  -5.356022e+06  1.387427e+06  4.214823e+06  7.633120e+06  6.083555e+06  6.608257e+06  6.565961e+13
B:6:9 950 136800 9  -7.312264e+05  -1.048906e+05  -2.448518e+05  3.265964e+04  -1.255833e+05  6.650078e+04  6.691115e+12
B:6:9 951 136944 9  -4.779198e+06  1.054146e+05  3.045846e+06  7.556570e+06  5.791364e+06  7.091238e+06  7.662805e+13
B:6:9 952 137088 9  -4.935879e+06  4.598487e+06  6.733643e+06  9.644879e+06  6.575656e+06  7.351579e+06  7.831552e+13
B:6:9 953 137232 9  -4.336097e+06  3.025815e+06  5.922394e+06  8.275981e+06  5.463277e+06  6.010817e+06  4.808718e+13
B:6:9 954 137376 9  -2.479475e+06  -6.940850e+05  -1.580390e+06  -1.717057e+06  -3.355525e+06  -1.738111e+06  2.181813e+14
B:6:9 955 137520 9  -4.329183e+06  3.209738e+06  5.816066e+06  7.995257e+06  5.464366e+06  5.859961e+06  4.545541e+13
B:6:9 956 137664 9  4.468351e+05  5.512279e+05  1.268849e+05  4.938000e+05  2.386808e+04  5.732284e+05  8.980831e+12
B:6:9 957 137808 9  -4.806447e+06  9.946497e+05  4.272494e+06  8.170888e+06  5.722083e+06  6.965692e+06  6.696208e+13
B:6:9 958 137952 9  -4.068352e+06  2.758306e+06  6.190907e+06  7.921238e+06  5.060268e+06  5.575325e+06  4.068136e+13
B:6:9 959 138096 9  -4.486980e+06  1.236387e+06  4.778195e+06  7.904353e+06  5.635922e+06  6.383585e+06  5.636345e+13
B:6:9 960 138240 9  -4.684944e+06  2.944883e+06  5.675287e+06  8.855192e+06  6.054007e+06  6.941970e+06  6.687574e+13
B:6:9 961 138384 9  -6.046637e+06  3.780449e+06  5.065435e+06  9.730105e+06  7.301180e+06  8.659960e+06  1.225092e+14
B:6:9 962 138528 9  -5.666497e+06  1.260047e+06  3.259383e+06  7.678062e+06  6.425019e+06  7.253934e+06  9.343726e+13
B:6:9 963 138672 9  -4.677307e+06  2.284579e+05  3.197470e+06  7.439814e+06  5.694135e+06  6.813120e+06  7.041062e+13
B:6:9 964 138816 9  -5.473490e+06  1.397342e+06  4.053472e+06  7.934976e+06  6.321708e+06  7.090289e+06  7.865834e+13
B:6:9 965 138960 9  -4.347638e+06  3.597637e+06  6.970432e+06  8.544837e+06  5.383692e+06  5.773890e+06  4.480270e+13
B:6:9 966 139104 9  -4.625007e+06  2.074588e+06  5.593478e+06  8.710384e+06  5.773103e+06  6.768811e+06  5.677912e+13
B:6:9 967 139248 9  -5.054666e+06  -2.847407e+05  2.623170e+06  7.243538e+06  5.879773e+06  7.195997e+06  8.845787e+13
B:6:9 968 139392 9  -4.859624e+06  -3.685156e+05  2.685685e+06  7.344299e+06  5.768796e+06  7.220552e+06  8.466962e+13
B:6:9 969 139536 9  -5.180239e+06  2.460915e+06  5.569638e+06  8.874122e+06  6.367149e+06  7.052863e+06  6.714829e+13
B:6:9 970 139680 9  -4.483776e+06  3.143211e+06  6.711402e+06  8.645909e+06  5.753236e+06  6.112710e+06  4.921697e+13
B:6:9 971 139824 9  1.577356e+06  -3.680555e+05  1.914541e+05  -2.185030e+05  -2.106162e+05  -7.110004e+05  2.304383e+14
B:6:9 972 139968 9  -5.902554e+06  2.910457e+06  4.857600e+06  8.258030e+06  6.432733e+06  6.709892e+06  6.706436e+13
B:6:9 973 140112 9  -4.986031e+06  2.545021e+06  5.917040e+06  9.322361e+06  6.373386e+06  7.307799e+06  6.711267e+13
B:6:9 974 140256 9  -5.026159e+06  1.387347e+06  4.536602e+06  8.834225e+06  6.159411e+06  7.536524e+06  7.518264e+13
B:6:9 975 140400 9  -5.422918e+06  1.597453e+05  3.395007e+06  7.481890e+06  5.994224e+06  6.920517e+06  7.273032e+13
B:6:9 976 140544 9  1.034468e+06  1.435716e+05  3.955013e+05  1.442862e+05  1.180997e+05  1.552839e+05  1.781184e+12
B:6:9 977 140688 9  -5.440999e+06  1.631770e+05  3.116589e+06  8.470579e+06  6.495452e+06  8.241852e+06  1.100485e+14
B:6:9 978 140832 9  -6.540821e+06  2.176225e+06  3.480204e+06  8.470736e+06  7.134803e+06  8.345554e+06  1.344759e+14
B:6:9 979 140976 9  -4.626848e+06  4.067333e+06  6.477348e+06  8.844565e+06  5.787972e+06  6.215625e+06  5.109465e+13
B:6:9 980 141120 9  -4.027645e+06  7.626091e+06  8.047760e+06  1.043106e+07  6.267117e+06  6.953087e+06  7.538208e+13
B:6:9 981 141264 9  -5.406065e+06  2.471205e+06  5.830976e+06  9.929390e+06  6.750356e+06  8.065768e+06  8.352595e+13
B:6:9 982 141408 9  -4.320558e+06  6.437677e+06  8.376247e+06  1.046720e+07  6.406741e+06  6.908957e+06  7.428270e+13
B:6:9 983 141552 9  -5.213972e+06  1.552466e+06  4.581068e+06  8.596484e+06  6.215975e+06  7.434848e+06  7.748211e+13
B:6:9 984 141696 9  -4.900424e+06  6.419095e+05  3.641745e+06  8.090930e+06  6.156041e+06  7.365912e+06  8.159037e+13
B:6:9 985 141840 9  -5.772586e+06  4.077594e+06  6.645442e+06  1.087815e+07  7.504435e+06  8.716979e+06  1.047318e+14
B:6:9 986 141984 9  -6.088439e+06  9.195867e+05  3.422825e+06  8.970974e+06  7.139275e+06  8.948126e+06  1.393381e+14
B:6:9 987 142128 9  -5.458424e+06  6.177415e+05  3.496808e+06  8.330835e+06  6.599198e+06  7.934109e+06  1.003895e+14
B:6:9 988 142272 9  -3.063840e+06  3.657643e+06  5.679463e+06  8.869387e+06  5.594344e+06  6.546887e+06  5.962822e+13
B:6:9 989 142416 9  -5.685906e+06  1.888863e+06  4.166698e+06  9.589346e+06  7.122975e+06  8.909642e+06  1.283530e+14
B:6:9 990 142560 9  -5.819515e+06  5.754309e+06  7.587510e+06  1.116633e+07  7.459634e+06  8.435229e+06  9.818039e+13
B:6:9 991 142704 9  -5.415492e+06  6.561806e+05  3.169728e+06  7.970593e+06  6.392982e+06  7.797123e+06  1.024453e+14
B:6:9 992 142848 9  -4.785891e+06  1.549987e+06  4.757322e+06  8.554773e+06  6.149274e+06  7.253199e+06  7.016902e+13
B:6:9 993 142992 9  -5.614154e+06  1.156666e+06  3.981596e+06  8.964520e+06  6.932972e+06  8.391590e+06  1.149806e+14
R: 6 9 1.149806e+14 3.171548e-01B:6:9 994 143136 9  -5.626910e+06  1.365215e+06  4.678436e+06  9.627060e+06  6.894832e+06  8.404226e+06  9.558114e+13
B:6:9 995 143280 9  -5.193649e+06  1.273635e+05  3.398035e+06  8.179558e+06  6.310120e+06  7.705831e+06  9.036087e+13
B:6:9 996 143424 9  -5.043193e+06  8.734621e+05  3.934138e+06  8.051043e+06  6.106214e+06  7.190681e+06  7.538841e+13
B:6:9 997 143568 9  -3.816707e+06  7.829756e+06  6.137536e+06  1.010512e+07  6.436560e+06  7.148158e+06  8.675297e+13
B:6:9 998 143712 9  -5.077292e+06  5.504682e+06  7.994793e+06  1.047085e+07  6.457649e+06  7.236600e+06  6.747859e+13
B:6:9 999 143856 9  -5.596674e+06  4.947403e+06  6.811780e+06  1.000118e+07  6.616144e+06  7.103705e+06  6.376529e+13
B:6:9 1000 144000 9  -5.175966e+06  2.432956e+06  5.407893e+06  9.106539e+06  6.520654e+06  7.481930e+06  7.417814e+13
B:6:9 1001 144144 9  -4.420074e+05  -3.821598e+05  -4.694241e+05  -3.202018e+05  -3.872114e+05  -1.342365e+05  4.795380e+12
B:6:9 1002 144288 9  -5.443957e+06  1.202585e+06  4.211106e+06  9.419499e+06  6.789279e+06  8.397256e+06  1.018109e+14
B:6:9 1003 144432 9  -5.668627e+06  1.750262e+06  4.851052e+06  9.797066e+06  6.942046e+06  8.528864e+06  1.001654e+14
B:6:9 1004 144576 9  1.613993e+06  1.942969e+05  1.261112e+05  -3.538976e+05  -1.036381e+05  -9.474808e+05  2.905568e+14
B:6:9 1005 144720 9  -3.796532e+06  7.729887e+06  6.346960e+06  9.707373e+06  5.926557e+06  6.397199e+06  6.560515e+13
B:6:9 1006 144864 9  2.713498e+05  -4.522332e+04  1.959189e+05  -2.013354e+05  1.942065e+05  -2.794533e+05  8.377874e+11
B:6:9 1007 145008 9  -5.424253e+06  3.517581e+06  6.596277e+06  1.019896e+07  6.912371e+06  7.850890e+06  7.912238e+13
B:6:9 1008 145152 9  -5.374019e+06  3.796110e+06  6.490066e+06  1.015765e+07  6.833508e+06  7.856588e+06  8.044078e+13
B:6:9 1009 145296 9  -5.357503e+06  1.196841e+06  4.385680e+06  8.736297e+06  6.663608e+06  7.846944e+06  9.145301e+13
B:6:9 1010 145440 9  1.562473e+05  3.915460e+04  -1.426250e+05  2.678879e+04  -1.123751e+05  3.778695e+04  1.720201e+12
B:6:9 1011 145584 9  -4.984897e+06  2.867517e+06  6.059754e+06  9.726368e+06  6.488661e+06  7.641845e+06  7.434183e+13
B:6:9 1012 145728 9  5.677392e+05  -3.976762e+05  1.659226e+05  -5.010788e+05  1.246878e+05  -4.845089e+05  6.787072e+12
B:6:9 1013 145872 9  -4.581384e+06  6.927502e+06  8.173752e+06  1.052197e+07  6.697349e+06  7.199659e+06  8.076806e+13
B:6:9 1014 146016 9  -4.380085e+06  4.014002e+06  6.664893e+06  8.917910e+06  5.897854e+06  6.411321e+06  5.553403e+13
B:6:9 1015 146160 9  -5.028550e+06  8.806935e+06  6.773211e+06  1.134402e+07  7.816643e+06  8.977766e+06  1.483168e+14
B:6:9 1016 146304 9  -5.305067e+06  -2.245500e+06  -4.243408e+06  -2.105771e+06  -3.256006e+06  -1.698022e+05  4.372685e+14
