995.000
995.000
995.000
995.000
995.000
995.000
995.000
995.000
995.000
995.000
995.000
995.000
995.000
996.111
998.889
999.000
997.333
996.111
995.000
994.444
993.778
992.667
992.222
992.778
992.667
992.111
990.667
989.000
988.444
987.889
987.333
987.667
989.333
991.000
992.667
991.222
989.000
988.444
987.778
986.667
986.444
987.556
989.667
992.444
994.778
997.000
994.778
992.222
988.333
985.333
983.667
981.000
977.667
977.889
979.000
976.778
974.889
974.333
973.556
972.444
971.000
969.333
969.000
969.000
969.000
969.222
970.333
971.444
972.556
972.333
971.222
970.111
969.000
967.333
966.000
966.000
966.000
966.000
966.000
966.000
966.444
967.000
965.889
964.778
963.667
963.889
966.111
967.667
968.778
969.000
969.000
968.444
967.889
967.333
966.111
963.889
964.000
965.667
965.111
964.000
966.222
967.778
966.667
965.556
964.444
963.000
961.333
960.556
960.000
958.333
956.444
953.667
950.889
948.111
947.000
947.000
945.222
943.000
937.444
932.333
929.000
927.000
927.000
931.000
937.667
947.444
958.000
970.222
983.333
1000.000
1018.444
1039.556
1065.000
1093.333
1120.778
1148.000
1165.778
1181.333
1188.000
1188.667
1180.333
1160.667
1133.444
1096.889
1058.000
1020.778
986.556
964.333
947.889
940.111
937.667
938.778
943.889
950.000
954.444
958.111
958.667
958.556
957.444
956.333
955.222
956.333
958.000
958.556
959.222
960.333
961.222
961.778
961.333
960.222
958.667
957.000
956.444
956.333
958.000
958.111
955.889
955.667
956.778
957.444
958.000
957.444
957.111
957.667
958.222
958.778
958.667
958.111
958.000
958.000
956.333
954.778
953.667
953.889
956.111
957.667
958.778
960.778
963.000
961.333
960.000
960.000
959.556
958.444
957.333
956.222
956.444
957.000
956.444
955.889
955.333
954.556
953.444
953.000
953.000
954.333
956.000
957.111
958.000
958.000
958.000
958.000
957.333
956.222
955.111
954.000
956.778
959.000
959.000
958.778
958.222
958.000
958.000
957.556
957.000
957.000
956.889
956.333
956.444
957.556
957.333
956.222
955.111
954.000
953.444
953.111
953.667
954.222
954.778
956.000
957.667
958.889
960.000
958.333
957.111
957.667
957.333
955.667
956.000
957.667
957.556
957.000
957.000
956.778
955.667
955.000
955.000
954.333
953.222
954.333
956.000
956.000
956.111
956.667
957.222
957.778
956.667
954.444
954.000
954.000
954.556
955.222
956.333
957.000
957.000
957.000
957.000
955.667
954.000
953.444
953.000
953.000
953.444
954.556
955.000
955.000
955.889
957.000
955.333
953.778
952.667
952.000
952.000
952.000
952.000
951.556
951.000
951.556
951.778
950.667
949.333
947.667
948.000
949.667
950.889
952.000
952.556
952.889
952.333
951.333
949.667
949.000
949.000
949.889
951.000
951.000
951.111
951.667
952.000
952.000
951.667
951.111
950.556
950.000
951.667
953.556
956.333
958.222
958.778
959.000
959.000
958.111
957.000
956.444
956.556
959.333
961.667
963.333
964.000
964.000
964.889
966.000
965.444
965.111
965.667
966.222
966.778
967.667
968.778
970.778
973.000
973.556
974.000
974.000
973.333
971.667
971.667
972.778
973.889
975.000
976.667
977.667
976.000
975.000
975.000
974.333
973.222
973.000
973.000
974.667
975.778
974.667
973.778
973.222
973.667
974.778
974.111
973.000
973.556
974.000
974.000
973.333
971.667
971.333
971.889
972.000
972.000
971.444
970.889
970.333
970.222
970.778
971.333
971.889
970.667
969.000
968.444
967.778
966.667
966.667
968.333
969.333
969.889
970.889
972.000
969.778
968.000
968.000
967.778
967.222
967.667
968.778
969.000
969.000
970.111
970.889
970.333
969.333
967.667
966.667
966.111
966.889
968.000
968.556
968.778
967.667
967.222
967.778
966.667
964.444
964.000
964.000
963.444
963.222
964.333
964.778
964.222
963.333
962.222
962.000
962.000
962.556
963.222
964.333
965.444
966.556
967.000
967.000
966.556
966.000
965.444
964.667
963.000
962.889
965.111
965.667
965.111
964.556
964.000
963.444
962.889
962.333
961.333
959.667
960.000
961.667
962.889
964.000
965.111
965.556
963.333
961.333
959.667
958.667
958.111
959.333
961.000
962.667
963.889
963.333
962.778
962.222
961.333
960.222
959.111
958.000
958.556
959.222
960.333
961.222
961.778
962.333
962.889
963.000
963.000
962.444
962.222
963.333
963.778
963.222
964.000
965.667
965.111
964.000
964.000
963.889
963.333
963.000
963.000
964.000
965.667
966.889
968.000
966.333
964.778
963.667
962.556
961.444
961.667
962.778
963.889
965.000
965.556
966.222
967.333
968.444
969.556
969.667
969.111
969.000
969.000
969.556
970.444
972.667
974.000
974.000
973.667
973.111
975.667
979.000
979.556
980.333
982.000
983.222
983.778
983.667
983.111
982.111
981.000
979.333
978.222
979.333
979.778
979.222
979.000
979.000
979.000
979.000
978.444
977.889
977.333
976.778
976.222
976.333
976.889
978.333
980.000
981.111
982.111
982.667
981.222
976.778
972.333
967.889
967.000
967.000
965.333
963.778
962.667
961.111
958.889
958.000
958.000
958.444
959.000
960.111
960.889
960.333
960.222
960.778
960.333
959.222
957.667
956.000
955.444
955.111
955.667
956.000
956.000
955.333
954.222
954.444
955.000
953.889
953.556
956.333
957.778
957.222
957.333
957.889
958.889
960.000
957.222
954.778
953.667
953.667
955.333
956.667
957.778
958.444
959.000
958.444
957.556
955.333
953.333
951.667
951.333
951.889
950.222
948.000
943.000
938.556
936.333
933.667
930.333
926.667
922.778
919.778
917.000
920.333
925.000
935.000
946.111
958.889
973.333
988.889
1004.889
1021.000
1048.778
1076.667
1105.000
1132.222
1157.778
1178.333
1195.556
1204.778
1212.000
1208.111
1201.667
1185.000
1163.222
1133.778
1100.333
1064.222
1032.556
1002.000
984.222
967.333
954.000
943.333
936.667
932.333
929.556
930.778
933.000
936.333
939.778
943.667
946.000
946.000
946.333
946.889
946.556
946.000
947.111
948.000
948.000
948.000
948.000
947.000
945.333
945.889
947.000
947.000
947.000
947.000
947.444
948.556
947.667
945.444
943.667
942.000
942.000
942.222
943.333
944.222
944.778
945.333
945.889
944.667
943.000
944.111
945.222
946.333
947.444
948.556
948.000
946.333
946.000
946.000
944.333
942.889
942.333
942.000
942.000
943.333
945.556
946.000
946.000
945.444
944.778
943.667
942.556
941.444
942.000
943.667
943.111
942.000
942.556
942.889
942.333
941.778
941.222
941.333
941.889
942.889
944.000
944.000
944.111
944.667
945.222
945.778
945.000
943.333
942.556
942.000
944.222
946.000
946.000
946.222
946.778
947.000
947.000
944.778
942.000
942.556
943.222
944.333
945.222
945.778
947.000
948.667
947.667
946.000
945.444
944.667
943.000
942.444
943.556
944.667
945.778
946.000
946.000
946.556
946.556
944.333
942.556
941.444
941.000
941.000
942.333
944.000
944.556
944.778
943.667
942.556
941.444
940.667
940.111
940.000
940.000
941.111
941.889
941.333
940.556
939.444
939.333
939.889
938.667
937.000
937.556
938.000
938.000
938.444
939.556
939.333
938.222
936.222
934.000
933.444
933.111
933.667
934.667
936.333
936.333
935.222
934.556
934.000
933.444
932.667
931.000
930.444
931.556
932.333
932.889
933.444
934.000
933.444
932.667
931.000
929.778
929.222
930.000
931.667
932.889
934.000
934.556
935.111
935.667
936.222
936.778
936.667
936.111
938.667
942.000
943.667
945.556
948.333
950.222
950.778
951.333
951.889
951.556
951.000
953.778
956.333
958.000
959.444
960.556
960.667
960.111
959.111
958.000
958.000
958.222
959.333
960.444
961.556
962.667
963.778
964.000
964.000
961.778
960.000
960.000
960.222
960.778
961.667
962.778
963.000
963.000
964.111
964.444
961.667
959.556
958.444
959.667
962.444
962.556
962.000
963.111
964.000
964.000
963.111
960.889
959.667
959.111
960.333
962.000
962.556
962.778
961.667
961.444
962.556
962.333
961.222
961.000
961.000
961.556
962.333
964.000
965.222
965.778
965.000
963.333
962.556
962.000
960.889
960.111
960.667
961.667
963.333
963.000
961.333
961.000
961.000
961.000
960.667
959.000
958.667
960.333
960.667
960.111
960.444
961.000
959.889
958.778
957.667
956.778
956.222
956.333
956.889
957.000
957.000
957.556
958.111
958.667
958.111
955.889
954.667
954.111
954.444
955.000
956.111
957.111
957.667
958.000
958.000
957.000
955.333
955.000
955.000
955.000
955.556
958.333
959.556
958.444
957.667
957.111
956.556
956.000
954.333
953.444
955.667
957.222
957.778
958.000
958.000
957.556
957.000
954.778
952.889
952.333
952.222
952.778
953.333
953.889
954.889
956.000
955.444
955.000
955.000
955.000
955.000
955.000
955.000
956.333
958.000
958.000
957.889
957.333
956.556
955.444
954.667
954.111
954.000
954.000
955.111
956.222
957.333
957.333
955.667
955.000
955.000
954.111
953.000
953.556
954.222
955.333
956.444
957.556
957.333
956.222
956.000
956.000
956.000
956.222
957.333
957.778
957.222
957.333
957.889
957.556
957.000
955.889
955.000
955.000
955.222
955.778
956.667
957.778
959.333
961.000
963.222
964.889
964.333
964.222
964.778
965.667
966.778
967.889
969.000
970.111
971.000
971.000
971.000
971.000
971.667
972.778
973.444
974.000
975.111
976.333
978.000
979.444
980.556
979.333
976.556
975.556
975.000
975.556
975.889
975.333
975.444
976.556
976.333
975.222
974.556
974.000
971.222
969.000
969.000
969.444
970.556
972.000
973.667
976.222
979.000
979.556
979.778
978.667
976.444
972.556
970.667
970.111
969.111
968.000
967.444
966.556
964.333
962.333
960.667
958.667
956.444
956.889
958.000
957.444
957.000
957.000
956.111
953.889
952.000
950.333
950.889
952.000
953.667
954.889
954.333
953.778
953.222
952.333
951.222
950.111
949.000
948.444
948.222
949.333
950.222
950.778
951.000
951.000
949.667
948.000
947.444
947.111
947.667
948.222
948.778
950.333
952.556
951.667
950.000
947.778
945.667
944.000
942.778
942.222
940.333
937.556
934.333
931.000
928.222
925.333
922.000
918.444
914.556
912.000
910.333
914.000
919.000
932.333
946.444
963.667
981.111
998.889
1020.000
1043.333
1073.778
1106.000
1137.111
1166.333
1188.000
1204.333
1212.667
1208.667
1196.444
1164.667
1128.000
1075.778
1025.778
984.667
952.000
932.000
923.667
923.111
928.333
935.000
938.333
941.444
943.667
945.222
945.778
945.667
945.111
945.444
946.000
945.444
944.778
943.667
943.444
944.556
944.333
943.222
944.333
946.000
945.444
945.000
945.000
944.333
942.667
942.333
942.889
943.444
944.000
944.000
943.667
942.000
941.444
942.556
942.000
940.333
940.444
941.000
942.111
943.000
943.000
942.333
940.667
940.000
940.000
938.667
937.000
938.667
940.222
941.333
942.000
942.000
942.333
942.889
941.222
939.000
938.444
938.222
939.333
940.222
940.778
941.333
941.889
942.000
942.000
940.333
939.111
939.667
940.889
943.111
944.333
944.889
944.556
944.000
944.000
944.111
944.667
944.111
941.889
941.667
942.778
944.333
946.000
944.889
944.000
944.000
943.333
941.667
940.333
939.222
939.000
939.000
940.111
941.000
941.000
941.222
941.778
941.000
939.333
939.000
939.000
939.556
940.111
940.667
941.667
943.333
944.000
944.000
943.111
942.000
940.333
939.333
941.000
942.222
942.778
943.667
944.778
944.556
944.000
944.000
943.889
943.333
943.889
946.111
946.000
944.333
944.889
946.000
946.000
945.778
944.667
943.333
941.667
941.667
942.778
943.000
943.000
942.444
941.889
941.333
940.778
940.222
940.000
940.000
939.556
939.000
940.111
941.000
941.000
941.222
941.778
940.333
937.556
937.444
938.000
937.444
937.333
939.000
940.000
940.000
940.000
940.000
940.000
940.000
939.444
939.000
939.000
939.444
940.556
942.333
944.556
945.000
945.000
945.556
946.333
948.000
949.667
951.333
953.333
955.556
956.444
957.000
957.556
957.889
957.333
957.000
957.000
957.667
958.778
959.444
960.000
961.667
963.000
963.000
962.556
961.444
961.333
961.889
962.444
963.000
963.556
964.000
964.000
964.000
964.000
963.333
962.222
962.000
962.000
962.000
961.889
961.333
961.667
963.333
963.667
963.111
962.111
961.000
960.444
959.889
959.333
959.667
961.333
962.333
962.889
963.000
963.000
961.333
959.889
959.333
959.889
962.111
962.667
962.111
963.333
965.000
963.333
961.667
960.000
958.778
958.222
958.667
959.778
960.000
960.000
960.000
959.889
959.333
957.889
955.111
954.000
954.000
954.889
956.000
956.556
957.111
957.667
957.778
957.222
956.667
956.111
954.222
952.000
953.111
954.000
954.000
953.778
953.222
952.667
952.111
952.444
953.000
951.889
951.222
952.333
953.222
953.778
954.667
955.778
954.667
953.000
953.556
953.667
952.000
951.000
951.000
952.000
953.667
953.556
953.000
953.556
953.556
951.333
949.556
948.444
948.667
949.778
950.889
952.000
951.444
951.111
951.667
951.778
951.222
950.000
948.333
948.889
950.000
950.556
951.333
953.000
954.000
954.000
954.000
954.000
952.222
950.000
950.556
951.444
953.667
955.000
955.000
955.333
955.889
954.667
953.000
951.889
951.111
951.667
952.222
952.778
953.000
953.000
953.000
953.000
950.778
948.778
947.667
948.333
951.667
952.667
952.111
952.444
953.000
952.444
952.000
952.000
951.556
950.444
950.667
951.778
953.333
955.000
953.889
953.222
954.333
955.000
955.000
955.000
955.000
955.444
956.000
959.333
962.111
962.667
963.000
963.000
962.667
962.111
962.444
963.000
964.667
966.111
966.667
967.444
968.556
968.667
968.111
968.000
968.000
968.556
969.222
970.333
971.444
972.556
973.667
974.778
973.667
972.000
971.444
970.778
969.667
968.778
968.222
969.000
970.667
970.556
970.000
969.444
968.889
968.333
968.222
968.778
968.667
968.111
968.444
969.000
970.111
971.222
972.333
973.667
975.333
974.667
972.444
970.222
968.000
964.667
962.000
962.000
960.444
956.556
954.000
952.333
950.222
948.000
947.444
947.111
947.667
948.444
949.556
949.667
949.111
948.111
947.000
946.444
945.889
945.333
945.444
946.556
947.000
947.000
947.000
947.000
945.889
944.778
943.667
943.222
943.778
945.667
948.444
949.000
949.000
947.333
945.889
945.333
944.111
941.889
941.667
942.778
943.444
944.000
945.111
945.667
944.000
942.111
939.889
936.667
932.778
930.667
929.000
925.667
922.889
922.333
921.333
919.667
918.000
916.333
910.667
904.000
899.000
895.333
897.000
900.444
906.556
914.333
923.222
934.778
947.000
959.778
973.444
990.667
1010.111
1032.889
1060.667
1091.778
1121.556
1151.000
1170.444
1187.111
1192.667
1192.000
1182.000
1158.333
1125.556
1082.556
1037.000
995.889
958.667
937.000
923.111
920.889
923.000
928.000
934.778
942.000
944.222
946.000
946.000
945.556
944.444
943.333
942.222
942.444
943.000
945.222
946.889
946.333
945.778
945.222
944.333
943.222
942.556
942.000
942.556
943.111
943.667
944.444
945.556
945.667
945.111
943.667
942.000
941.444
941.111
941.667
942.667
944.333
944.333
943.222
942.556
942.000
942.556
943.000
943.000
942.778
942.222
943.333
945.556
946.444
947.000
946.444
945.889
945.333
944.778
944.222
944.000
944.000
944.000
944.000
944.556
945.000
945.000
944.556
943.444
943.000
943.000
943.444
944.000
944.556
945.222
946.333
947.444
948.556
948.333
947.222
946.111
945.000
945.556
946.111
946.667
947.444
948.556
948.333
947.222
946.111
945.000
945.000
945.222
946.333
947.444
948.556
949.000
949.000
948.111
947.000
945.889
945.111
945.667
946.000
946.000
947.667
950.444
950.111
949.000
947.889
946.778
945.667
945.667
947.333
947.667
947.111
947.889
949.000
948.444
947.778
946.667
946.444
947.556
948.333
948.889
949.000
949.000
949.000
949.000
949.000
948.778
948.222
947.333
946.222
946.000
946.000
948.778
950.889
950.333
949.778
949.222
948.333
947.222
946.556
946.000
946.000
946.333
948.000
949.444
950.556
949.667
947.444
947.444
948.000
946.889
946.333
948.000
949.000
949.000
949.667
950.778
950.556
950.000
948.333
946.778
945.667
945.444
946.556
947.000
947.000
948.333
950.000
950.556
950.889
950.333
949.778
949.222
950.667
953.444
955.333
957.000
958.667
960.111
960.667
960.778
960.222
959.667
959.111
959.889
961.000
963.222
965.222
966.333
966.333
964.667
964.333
964.889
965.889
967.000
967.000
967.111
967.667
968.444
969.556
969.333
968.222
967.111
966.000
965.444
965.000
965.000
965.222
965.778
966.667
967.778
967.111
966.000
965.444
964.667
963.000
962.667
964.333
965.667
966.778
967.444
968.000
968.556
968.556
966.333
964.556
963.444
963.333
963.889
964.444
965.000
965.000
965.222
966.333
966.333
964.667
963.667
963.111
963.444
964.000
964.556
964.889
964.333
963.778
963.222
962.333
961.222
961.444
962.000
961.444
961.444
963.667
964.778
964.222
963.333
962.222
960.222
958.000
956.889
956.222
957.333
958.444
959.556
960.000
960.000
960.444
961.000
959.889
958.778
957.667
957.222
957.778
959.000
960.667
960.556
960.000
960.000
959.778
958.667
957.333
955.667
955.333
955.889
956.444
957.000
957.556
957.889
957.333
956.556
955.444
954.667
954.111
954.444
955.000
955.556
956.111
956.667
957.000
957.000
957.333
957.889
957.556
957.000
956.444
956.111
956.667
957.667
959.333
958.667
956.444
956.000
956.000
954.889
953.667
952.000
951.222
951.778
953.000
954.667
955.000
955.000
954.444
954.000
954.000
954.000
954.000
954.667
955.778
956.000
956.000
955.444
955.000
955.000
953.444
949.556
949.333
951.556
952.000
952.000
953.667
955.000
955.000
954.778
954.222
953.667
953.111
953.889
955.000
956.667
958.000
958.000
957.778
957.222
957.000
957.000
956.556
956.000
957.111
958.222
959.333
961.333
964.667
966.000
966.000
965.111
964.000
963.444
963.444
965.667
967.222
967.778
968.333
968.889
968.556
968.000
968.556
969.111
969.667
970.222
970.778
972.000
973.667
975.778
978.000
976.333
975.111
975.667
975.333
973.667
973.000
973.000
973.889
975.000
976.111
976.556
974.333
972.556
971.444
971.333
971.889
972.444
973.000
971.333
970.111
970.667
970.333
968.667
969.667
972.444
973.444
974.000
974.556
974.556
972.333
970.333
968.667
966.667
964.444
962.667
961.000
959.889
958.778
957.667
956.556
955.444
956.000
957.667
957.556
957.000
955.889
954.667
953.000
952.444
953.556
954.667
955.778
956.444
957.000
955.889
954.667
953.000
951.778
951.222
950.333
949.222
949.444
950.000
950.556
951.000
951.000
950.333
948.667
948.333
948.889
949.000
949.000
950.111
950.889
950.333
950.444
951.556
951.333
950.222
949.111
948.000
949.667
951.111
951.667
952.444
953.556
953.667
953.111
951.667
950.000
948.333
946.778
945.667
943.444
939.556
937.000
935.333
931.444
927.000
923.667
919.889
914.333
911.444
912.556
918.333
927.222
939.667
953.000
968.000
983.667
1002.000
1023.667
1050.333
1080.333
1112.556
1139.444
1165.000
1177.778
1187.111
1182.667
1169.111
1141.889
1105.000
1061.667
1022.333
984.000
959.556
938.222
929.333
924.889
927.111
930.000
933.333
937.556
942.000
943.111
944.222
945.333
946.000
946.000
945.333
944.222
943.556
943.000
940.778
939.000
939.000
939.889
942.111
943.667
944.778
944.111
943.000
943.000
942.778
941.667
941.444
942.556
944.333
946.556
946.556
946.000
945.444
945.000
945.000
945.000
945.000
945.000
945.000
945.889
947.000
946.444
946.000
946.000
945.556
944.444
942.333
939.556
940.333
942.000
943.111
944.111
944.667
944.778
944.222
943.667
943.111
941.222
939.000
940.111
941.222
942.333
943.000
943.000
943.000
943.000
942.556
942.000
941.444
941.222
942.333
942.333
940.667
941.000
942.667
942.556
942.000
942.000
941.778
940.667
940.222
940.778
941.667
942.778
943.889
945.000
945.000
945.000
945.000
944.778
944.222
944.333
944.889
945.000
945.000
943.889
943.000
943.000
942.333
940.667
939.000
937.333
938.778
941.000
942.111
943.222
944.333
945.222
945.778
944.333
941.556
941.889
943.000
943.000
943.111
943.667
944.222
944.778
945.000
945.000
944.111
943.000
941.333
940.111
940.667
941.667
943.333
944.333
944.889
944.556
944.000
943.444
942.556
940.333
939.000
939.000
939.000
939.000
939.444
940.000
939.444
938.444
935.667
934.222
934.778
934.667
934.111
935.333
937.000
935.889
934.444
931.667
930.667
932.333
932.667
932.111
933.778
936.000
936.556
937.222
938.333
938.778
938.222
937.000
935.333
934.556
934.000
934.556
935.333
937.000
938.444
939.556
940.667
941.778
940.667
939.000
939.556
940.333
942.000
944.111
946.889
948.667
949.778
950.444
951.000
951.000
951.000
951.000
951.889
954.111
956.000
957.667
959.333
961.000
962.111
963.000
963.000
962.333
960.667
960.667
961.778
962.000
962.000
962.556
962.889
962.333
961.778
961.222
960.667
960.111
960.444
961.000
962.111
963.000
963.000
963.444
964.556
964.000
962.333
961.111
960.000
961.111
961.889
961.333
961.889
964.111
964.667
964.111
963.556
963.000
963.556
964.333
966.000
967.222
967.778
967.333
966.222
965.556
965.000
963.889
962.556
960.333
959.889
962.111
963.333
963.889
964.000
964.000
962.333
960.778
959.667
958.556
957.444
957.667
958.778
959.889
961.000
960.444
959.667
958.000
957.222
957.778
957.333
956.222
957.333
959.000
959.000
959.111
959.667
960.222
960.778
959.667
957.444
957.000
957.000
955.889
955.222
956.333
957.444
958.556
958.667
958.111
959.333
961.000
958.778
957.111
957.667
958.000
958.000
958.000
958.000
958.000
958.000
957.444
956.889
956.333
956.444
957.556
958.667
959.778
960.444
961.000
959.889
958.778
957.667
956.111
953.889
953.667
954.778
955.444
956.000
956.556
957.333
959.000
959.778
959.222
957.333
954.556
955.778
958.000
959.667
961.000
961.000
960.333
958.667
958.000
958.000
957.556
957.000
957.000
957.111
957.667
958.000
958.000
958.000
958.000
957.111
956.000
956.000
956.000
956.000
956.667
958.333
959.000
959.000
959.000
959.000
956.778
954.889
954.333
954.444
955.556
956.667
957.778
958.889
960.000
961.111
962.111
962.667
963.000
963.000
965.000
968.333
969.444
970.000
971.667
972.889
972.333
971.778
971.222
971.333
971.889
972.889
974.000
975.667
977.000
977.000
977.667
979.333
979.000
977.333
977.000
977.000
978.667
979.778
978.667
978.222
978.778
978.333
977.222
976.111
975.000
973.889
973.333
975.000
976.444
977.556
978.000
978.000
976.222
974.000
973.444
973.111
973.667
974.889
977.111
979.667
982.444
983.889
985.000
983.333
981.556
979.333
976.222
971.778
970.000
970.000
968.667
967.000
967.000
966.444
963.667
961.111
958.889
957.333
956.222
956.000
956.000
955.444
954.889
954.333
954.000
954.000
954.667
955.778
954.667
953.000
954.111
955.111
955.667
956.000
956.000
955.667
955.111
954.111
953.000
951.333
950.333
952.000
952.333
950.667
951.667
954.444
955.444
956.000
953.778
951.556
949.333
948.889
951.111
953.000
954.667
954.556
954.000
954.000
953.889
953.333
951.889
949.111
947.333
946.222
945.556
945.000
941.667
938.333
935.000
932.111
929.889
926.667
922.778
918.889
915.000
915.556
917.000
922.000
929.000
939.000
950.333
962.556
977.000
992.000
1014.222
1038.111
1068.667
1099.444
1130.556
1156.667
1179.444
1191.556
1201.000
1191.000
1176.889
1146.333
1110.667
1067.333
1027.000
988.667
962.333
939.000
930.667
924.222
925.333
927.778
932.222
937.333
942.889
944.889
946.000
945.444
945.000
945.000
944.778
944.222
944.667
945.778
946.889
948.000
947.444
947.000
947.000
946.333
944.667
943.333
942.222
942.000
942.000
944.222
946.000
946.000
945.333
943.667
943.000
943.000
942.111
941.000
941.556
942.333
944.000
945.000
945.000
944.667
944.111
942.667
941.000
941.000
941.000
941.000
941.667
943.333
944.667
945.778
946.000
946.000
943.778
941.889
941.333
941.444
942.556
943.667
944.778
945.000
945.000
945.000
944.778
943.667
942.778
942.222
942.000
942.000
942.889
944.000
945.111
945.889
945.333
944.333
942.667
941.000
939.333
939.889
941.000
942.111
942.889
942.333
942.222
942.778
942.333
941.222
940.111
939.000
939.000
939.333
941.000
942.667
944.333
945.333
945.889
945.111
944.000
942.889
942.000
942.000
942.444
943.556
944.667
945.778
944.222
942.000
940.889
940.000
940.000
940.222
940.778
941.000
941.000
941.889
943.000
941.333
940.111
940.667
940.556
939.444
940.000
941.667
942.889
944.000
943.444
943.111
943.667
944.000
944.000
943.333
942.222
942.889
944.000
944.556
945.000
945.000
944.556
943.444
942.667
942.111
940.667
939.000
939.000
939.333
941.000
942.000
942.000
941.333
940.222
939.111
938.000
936.333
935.111
935.667
936.222
936.778
937.333
937.889
938.000
938.000
935.778
934.111
934.667
935.000
935.000
935.667
936.778
937.000
937.000
935.889
935.111
935.667
935.556
934.444
935.333
937.556
938.000
938.000
939.667
941.333
943.000
944.000
944.000
945.000
946.667
948.778
951.000
954.333
957.111
957.667
958.222
958.778
958.667
958.111
958.000
958.000
960.222
962.333
964.000
965.444
966.556
966.667
966.111
966.000
966.000
963.778
962.333
964.000
965.444
966.556
967.333
967.889
966.222
964.000
965.111
965.889
965.333
965.222
965.778
966.667
967.778
968.444
969.000
969.000
968.667
967.000
966.000
966.000
966.333
966.889
968.333
970.000
970.000
970.000
970.000
969.778
969.222
968.000
966.333
966.444
967.000
968.111
969.000
969.000
968.333
966.667
965.667
965.111
964.111
963.000
964.111
965.000
965.000
965.444
966.556
966.667
966.111
965.111
964.000
963.444
962.889
962.333
962.667
964.333
964.667
964.111
963.556
963.000
962.444
961.667
960.000
959.000
959.000
959.667
960.778
961.444
962.000
961.444
961.000
961.000
960.556
959.444
959.333
959.889
960.889
962.000
960.889
960.111
960.667
960.333
958.667
958.000
958.000
958.889
960.000
961.111
962.000
962.000
962.000
962.000
960.667
958.444
957.556
957.000
957.556
958.222
959.333
959.778
959.222
959.000
959.000
958.556
958.000
957.444
957.111
957.667
958.222
958.778
959.000
959.000
959.444
960.000
959.444
958.889
958.333
958.222
958.778
959.667
960.778
961.889
963.000
960.778
959.222
960.333
960.111
957.889
957.333
957.889
959.778
962.000
960.889
959.778
958.667
958.000
958.000
957.667
957.111
957.444
958.000
958.000
958.222
959.333
960.000
960.000
959.333
958.222
958.000
958.000
958.556
959.222
960.333
961.000
961.000
961.000
961.000
959.667
958.000
958.000
958.222
959.333
960.222
960.778
961.667
962.778
963.000
963.000
964.111
964.556
962.333
961.667
963.333
965.667
968.444
970.778
973.000
973.000
972.889
972.333
971.778
971.222
971.667
972.778
974.778
977.000
977.556
978.111
978.667
979.222
979.778
980.000
980.000
980.444
981.000
982.667
983.889
983.333
983.000
983.000
981.667
979.444
978.111
977.000
976.444
976.222
977.333
978.667
980.333
979.333
976.556
976.000
976.000
974.889
974.333
976.000
978.111
980.889
982.667
983.778
982.222
980.000
976.111
972.556
970.333
968.556
967.444
966.000
964.333
963.556
963.000
961.333
959.778
958.667
958.222
958.778
959.333
959.889
959.111
958.000
958.000
957.889
957.333
956.778
956.222
955.667
955.111
955.444
956.000
956.556
957.333
959.000
959.778
959.222
958.333
957.222
956.111
955.000
955.000
955.000
955.000
955.444
956.556
956.667
956.111
955.556
955.000
953.889
953.333
955.000
956.000
956.000
956.000
956.000
956.000
956.000
955.444
954.778
953.667
952.556
951.444
950.667
950.111
946.889
943.000
938.556
934.222
930.333
927.333
925.667
923.333
920.556
918.667
917.000
920.333
925.000
935.000
947.000
962.000
977.667
993.778
1014.778
1037.000
1063.111
1090.222
1121.333
1150.222
1175.778
1195.000
1210.000
1210.778
1208.000
1191.889
1171.667
1135.000
1094.111
1046.889
1007.000
972.000
951.667
935.000
932.222
931.000
936.000
941.000
946.000
949.333
951.556
952.000
952.000
950.889
949.778
948.667
948.000
948.000
948.333
948.889
949.444
950.000
950.556
950.889
950.333
949.333
947.667
947.000
947.000
947.889
949.000
949.556
950.000
950.000
949.333
947.667
946.333
945.222
945.889
947.000
947.000
946.889
946.333
946.222
946.778
946.333
945.222
943.667
942.000
943.111
944.111
944.667
945.667
947.333
947.000
945.333
945.000
945.000
944.444
944.000
944.000
944.222
944.778
945.333
945.889
946.000
946.000
945.444
944.778
943.667
943.667
945.333
946.333
946.889
947.889
949.000
949.000
948.889
948.333
947.556
946.444
946.333
946.889
948.333
950.000
950.000
950.000
950.000
949.778
949.222
948.333
947.222
948.333
950.000
947.778
946.333
948.000
949.222
949.778
949.333
948.222
947.111
946.000
946.000
946.111
946.667
947.444
948.556
949.000
949.000
948.111
947.000
945.889
945.111
945.667
946.222
946.778
947.667
948.778
948.556
948.000
947.444
946.889
946.333
946.444
947.556
948.000
948.000
948.889
950.000
950.000
950.111
950.667
949.889
947.111
947.667
950.444
951.000
951.000
951.556
951.667
950.000
948.778
948.222
946.667
944.444
944.889
946.000
947.667
949.000
949.000
949.222
949.778
949.000
947.333
946.556
946.000
946.000
946.000
946.000
946.000
946.000
947.000
948.667
948.111
947.000
945.889
945.333
947.000
948.444
949.556
949.667
949.111
949.000
949.000
947.333
945.667
944.000
944.333
947.667
949.333
949.889
950.889
952.000
950.333
948.778
947.667
947.222
947.778
948.667
949.778
950.889
952.000
953.667
955.000
955.000
955.667
957.333
958.000
958.000
959.333
961.000
961.556
962.333
964.000
965.444
966.556
967.000
967.000
966.111
965.000
966.667
968.222
969.333
969.556
968.444
968.000
968.000
968.000
968.000
966.889
966.000
966.000
966.444
967.556
968.333
968.889
968.556
968.000
967.444
966.889
966.333
966.000
966.000
966.667
967.778
968.000
968.000
967.444
966.889
966.333
965.556
964.444
964.333
964.889
965.889
967.000
967.556
967.889
967.333
967.000
967.000
966.333
965.222
965.889
967.000
967.556
968.111
968.667
968.778
968.222
967.333
966.222
964.222
962.000
962.556
963.444
965.667
967.667
969.333
970.000
970.000
969.556
969.000
967.889
967.000
967.000
967.667
969.333
970.333
970.889
971.000
971.000
971.000
970.667
969.000
968.667
970.333
972.333
974.556
975.889
977.000
977.000
976.667
975.000
974.000
974.000
974.333
974.889
977.667
981.000
980.444
979.444
976.667
974.556
973.444
974.667
977.444
980.222
983.000
982.444
981.778
980.667
979.556
978.444
977.333
976.222
976.000
976.000
975.444
974.889
974.333
973.111
970.889
969.000
967.333
964.333
961.000
960.444
960.000
960.000
960.444
961.556
960.667
958.444
957.111
956.000
955.444
954.667
953.000
951.778
951.222
951.333
951.889
952.889
954.000
953.444
952.556
950.333
948.556
947.444
947.667
948.778
949.444
950.000
950.556
951.000
951.000
950.778
950.222
949.333
948.222
949.778
952.000
953.111
953.889
953.333
953.000
953.000
953.333
953.889
952.667
951.000
952.667
954.000
954.000
954.444
955.556
955.000
953.333
953.444
954.000
951.222
949.222
950.333
950.556
949.444
947.333
944.556
941.333
938.000
933.000
928.000
923.000
920.000
920.000
918.000
914.667
912.222
910.000
913.333
918.111
928.667
941.222
956.778
974.000
992.333
1010.667
1029.000
1055.111
1081.556
1109.333
1136.000
1161.000
1178.333
1190.556
1195.667
1199.000
1183.444
1163.556
1126.333
1085.111
1037.889
998.333
963.889
944.111
928.000
929.111
931.222
937.333
942.778
947.222
949.667
950.778
949.222
947.000
945.333
944.444
946.667
947.556
946.444
947.000
948.667
948.111
947.000
945.889
944.778
943.667
943.667
945.333
946.667
947.778
947.556
947.000
947.000
946.778
945.667
944.778
944.222
943.667
943.111
943.444
944.000
945.111
946.000
946.000
945.778
945.222
944.667
944.111
944.889
946.000
946.556
946.889
946.333
946.222
946.778
945.333
942.556
941.111
940.000
941.667
942.889
942.333
942.889
945.111
946.000
946.000
946.000
946.000
944.889
944.000
944.000
944.444
945.556
947.000
948.667
948.556
948.000
946.333
944.889
944.333
944.444
945.556
945.333
944.222
944.889
946.000
945.444
944.667
943.000
941.778
941.222
941.667
942.778
944.778
947.000
947.000
947.111
947.667
947.111
944.889
944.000
944.000
944.444
945.000
945.556
946.222
947.333
948.222
948.778
947.667
945.444
945.000
945.000
946.111
947.111
947.667
948.222
948.778
948.333
947.222
946.556
946.000
944.889
944.000
944.000
944.667
946.333
947.333
947.889
946.667
945.000
945.556
945.778
944.667
944.222
944.778
945.667
946.778
947.444
948.000
947.444
946.778
945.667
944.556
943.444
943.333
943.889
944.889
946.000
947.111
948.000
948.000
947.778
947.222
945.667
943.444
943.889
945.000
944.444
944.222
945.333
945.556
944.444
943.667
943.111
941.222
939.000
939.556
940.333
942.000
943.222
943.778
943.667
943.111
943.000
943.000
941.889
941.333
943.000
944.444
945.556
946.667
947.778
947.556
947.000
945.889
944.778
943.667
943.667
945.333
947.333
949.556
950.000
950.000
950.000
949.667
948.000
947.667
949.333
951.000
952.667
953.889
955.000
955.556
956.111
956.667
956.778
956.222
955.000
953.333
954.778
957.000
958.111
959.333
961.000
962.222
962.778
963.000
963.000
961.667
960.000
960.556
961.111
961.667
962.222
962.778
963.000
963.000
960.778
958.000
958.556
958.556
956.333
955.889
958.111
959.667
960.778
961.000
961.000
962.111
962.889
962.333
962.000
962.000
962.667
963.778
963.556
963.000
963.000
962.778
961.667
960.778
960.222
959.667
959.111
959.889
961.000
962.111
962.778
961.667
960.556
959.444
959.000
959.000
958.556
958.000
959.667
961.000
961.000
961.222
961.778
960.667
958.444
957.111
956.000
956.556
957.111
957.667
957.333
955.667
954.333
953.222
952.111
951.000
950.444
950.556
953.333
955.222
955.778
956.000
956.000
955.556
955.000
953.333
951.889
951.333
951.222
951.778
952.000
952.000
953.333
955.000
953.889
952.778
951.667
951.667
953.333
953.333
952.222
952.889
954.000
955.111
955.889
955.333
954.556
953.444
952.000
950.333
951.778
954.000
954.000
954.000
954.000
954.222
954.778
954.667
954.111
953.556
953.000
952.444
952.333
954.000
954.556
953.444
953.333
953.889
953.111
952.000
950.889
950.333
952.000
953.000
953.000
953.333
953.889
953.556
953.000
952.444
951.333
948.000
946.222
946.778
948.667
951.444
952.000
952.000
950.889
950.000
950.000
949.111
946.889
947.000
948.667
949.444
950.000
952.222
954.222
955.333
955.778
955.222
954.000
952.333
952.000
952.000
953.111
954.000
954.000
954.667
956.333
955.333
952.556
951.556
951.000
951.000
951.111
951.667
952.000
952.000
951.667
951.111
950.111
949.000
947.889
947.000
947.000
947.889
950.111
950.667
950.111
949.556
949.000
949.556
949.889
949.333
949.444
950.556
951.667
952.778
953.000
953.000
952.444
951.889
951.333
950.778
950.222
950.667
951.778
952.889
954.000
955.111
955.889
955.333
955.222
955.778
955.333
954.222
954.444
955.000
954.444
953.778
952.667
952.444
953.556
953.333
952.222
951.111
950.000
951.111
952.000
952.000
952.222
952.778
952.667
952.111
950.667
949.000
949.000
949.111
949.667
950.889
953.111
953.667
953.111
952.556
952.000
951.444
950.778
949.667
949.222
949.778
950.333
950.889
951.444
952.000
952.556
952.889
952.333
952.000
952.000
952.667
953.778
954.889
956.000
955.444
955.000
955.000
954.556
953.444
952.667
952.111
952.000
952.000
951.444
951.444
953.667
954.556
953.444
953.333
953.889
953.111
952.000
952.556
952.889
952.333
952.667
954.333
955.667
956.778
957.444
958.000
958.000
958.444
960.667
962.222
962.778
963.333
963.889
963.556
963.000
964.111
964.778
963.667
963.889
966.111
967.667
968.778
969.889
971.000
972.111
973.000
973.000
972.778
972.222
971.667
971.111
971.889
973.000
973.000
972.889
972.333
971.111
968.889
967.333
966.222
966.889
968.000
969.111
970.333
972.000
972.111
969.889
968.000
966.333
963.333
960.000
962.222
964.111
964.667
966.111
968.889
970.333
970.889
970.556
970.000
968.333
966.667
965.000
963.556
962.444
961.667
961.111
960.556
960.000
956.667
953.556
951.333
950.222
950.778
951.000
951.000
951.000
951.000
950.444
950.000
950.000
950.000
950.000
949.333
948.222
949.778
952.000
950.333
949.000
949.000
947.889
945.111
942.667
940.444
941.333
943.000
943.556
944.333
946.000
947.222
947.778
946.667
944.444
942.667
941.000
942.111
943.222
944.333
945.000
945.000
945.000
945.000
943.667
942.000
939.778
937.778
936.667
935.333
933.667
930.667
926.778
926.444
927.000
923.111
918.889
913.333
909.778
909.222
912.333
917.889
928.333
940.000
952.778
965.556
978.333
993.556
1012.444
1036.000
1062.667
1091.556
1121.000
1146.556
1169.889
1184.333
1194.778
1199.222
1194.667
1184.111
1161.556
1136.000
1098.778
1062.444
1029.667
1000.444
976.556
957.667
942.111
932.333
924.000
918.444
914.333
916.000
918.556
922.444
926.333
930.222
932.333
934.000
934.000
934.333
936.000
937.667
939.333
940.667
941.778
942.000
942.000
941.444
940.889
940.333
939.778
939.222
939.333
939.889
939.111
938.000
938.000
937.778
936.667
935.556
934.444
934.000
934.000
935.778
938.000
938.000
938.000
938.000
937.333
935.667
935.000
935.000
935.444
936.000
937.667
938.889
938.333
938.000
938.000
938.333
938.889
937.222
935.000
935.000
935.333
937.000
937.778
937.222
937.000
937.000
936.111
935.000
935.000
935.222
936.333
937.222
937.778
938.333
938.889
938.556
938.000
938.000
937.778
936.667
936.889
939.111
939.333
938.222
938.444
939.000
938.444
937.778
936.667
936.000
936.000
936.667
937.778
938.000
938.000
939.667
940.778
939.667
938.778
938.222
936.333
933.556
933.889
935.000
935.000
935.333
937.000
938.000
938.000
937.333
936.222
936.000
936.000
936.556
937.111
937.667
938.667
940.333
941.000
941.000
940.111
939.000
939.000
939.111
939.667
940.667
942.333
943.000
943.000
942.111
941.000
941.000
940.778
939.667
938.778
938.222
939.667
942.444
943.000
943.000
943.000
943.000
943.000
941.889
939.111
939.000
940.667
941.444
942.000
941.444
940.667
939.000
937.333
935.667
933.667
931.444
931.444
932.000
933.111
933.889
933.333
932.778
932.222
931.667
931.111
929.222
927.000
925.889
925.444
927.667
928.333
926.667
925.333
924.222
924.444
925.000
922.778
921.333
923.000
924.667
926.333
926.667
926.111
926.444
927.000
925.333
924.000
924.000
924.444
925.556
926.667
927.778
929.778
932.000
932.000
931.778
930.667
930.222
930.778
932.667
935.444
936.889
938.000
938.556
939.333
941.000
942.000
942.000
942.667
943.778
944.889
946.000
947.111
948.556
951.333
953.222
953.778
953.667
953.111
953.444
954.000
955.111
956.222
957.333
958.222
958.778
960.333
962.556
961.667
960.000
960.556
961.222
962.333
963.222
963.778
963.667
963.111
963.000
963.000
962.444
961.556
959.333
958.889
961.111
961.667
961.111
961.000
961.000
960.444
959.889
959.333
959.000
959.000
959.000
959.000
960.333
962.000
962.000
961.889
961.333
960.556
959.444
958.667
958.111
958.444
959.000
959.000
959.222
960.333
960.778
960.222
959.333
958.222
957.556
957.000
957.556
958.333
960.000
960.778
960.222
960.000
960.000
958.667
957.000
957.000
957.222
958.333
959.000
959.000
959.333
959.889
960.000
960.000
959.444
958.444
955.667
954.222
954.778
955.000
955.000
955.889
957.000
955.889
954.778
953.667
953.000
953.000
953.000
953.000
953.889
955.000
956.111
957.000
957.000
956.556
955.444
954.333
953.222
954.333
956.000
956.556
957.111
957.667
957.778
957.222
956.333
955.222
954.556
954.000
954.000
954.222
955.333
956.222
956.778
957.333
957.889
955.333
952.000
952.556
953.222
954.333
955.444
956.556
956.333
955.222
954.556
954.000
952.889
951.556
949.333
948.444
949.556
951.667
954.444
955.000
955.000
954.444
953.889
953.333
952.556
951.444
951.333
951.889
953.333
955.000
955.000
954.889
954.333
953.556
952.444
952.000
952.000
952.889
954.000
953.444
953.333
955.000
955.778
955.222
954.333
953.222
953.000
953.000
953.000
953.333
955.000
956.000
956.000
955.667
955.111
953.222
951.000
950.444
950.444
952.667
954.889
957.111
958.667
959.778
960.444
961.000
963.222
964.778
963.667
963.444
964.556
964.667
964.111
965.333
967.000
968.111
969.333
971.000
971.333
969.667
969.667
970.778
971.444
972.000
973.111
974.111
974.667
974.556
973.444
972.333
971.222
971.444
972.000
972.000
972.222
973.333
973.556
972.444
970.667
968.444
968.000
968.000
968.556
968.778
967.667
967.222
967.778
969.667
972.444
973.889
975.000
975.000
974.667
973.000
970.889
968.111
966.667
966.111
965.111
964.000
961.778
959.667
958.000
956.111
953.889
953.333
953.889
953.556
953.000
953.000
952.556
950.333
948.556
947.444
947.333
947.889
949.778
952.000
953.111
953.778
952.667
951.778
951.222
950.667
950.111
950.000
950.000
950.556
951.111
951.667
951.778
951.222
950.667
950.111
948.667
947.000
947.000
947.444
949.667
951.222
951.778
950.667
948.444
947.556
947.000
945.889
945.000
945.000
945.444
946.556
947.333
947.889
946.667
945.000
941.667
938.111
933.667
929.444
925.556
923.000
921.333
919.667
918.000
914.667
911.444
908.667
909.444
915.556
926.000
939.333
955.778
973.000
989.667
1007.667
1031.000
1056.111
1083.889
1111.333
1138.556
1162.667
1186.000
1194.889
1200.667
1194.000
1178.889
1151.111
1113.667
1069.778
1026.333
983.000
955.778
932.333
924.000
920.333
923.667
927.000
930.333
933.667
937.000
939.222
941.000
941.000
941.000
941.000
942.000
943.667
944.444
945.000
943.889
942.556
940.333
938.556
937.444
938.333
940.556
941.000
941.000
941.000
941.000
941.000
940.333
938.667
938.667
939.778
940.889
942.000
942.556
942.667
941.000
940.444
941.556
941.333
940.222
941.778
944.000
944.556
945.222
946.333
946.333
944.667
944.000
944.000
944.000
944.000
944.000
944.111
944.667
944.778
944.222
944.000
944.000
944.000
944.000
942.889
942.333
944.000
944.333
942.667
942.667
943.778
944.444
945.000
943.889
942.889
942.333
941.778
941.222
941.667
942.778
943.444
944.000
944.556
944.778
943.667
942.556
941.444
941.667
942.778
942.111
941.000
941.556
942.111
942.667
943.000
943.000
942.667
942.111
942.444
943.000
943.556
944.111
944.667
944.556
943.444
943.000
943.000
943.444
944.000
944.556
945.111
945.667
945.778
945.222
945.333
945.889
945.556
945.000
942.222
940.111
940.667
941.444
942.556
943.333
943.889
944.000
944.000
942.333
940.889
940.333
940.444
941.556
943.000
944.667
944.556
944.000
943.444
942.778
941.667
940.111
937.889
938.333
940.556
941.000
941.000
942.667
943.889
943.333
942.333
940.667
939.333
938.222
938.444
939.000
940.667
942.000
942.000
942.222
942.778
942.333
941.222
940.111
939.000
939.000
939.111
939.667
940.444
941.556
942.000
942.000
941.111
940.000
938.889
938.111
938.667
939.222
939.778
941.000
942.667
942.111
941.000
941.556
942.000
942.000
943.111
945.889
948.000
949.667
950.889
952.000
953.111
954.000
954.000
954.000
954.000
955.000
956.667
958.333
960.000
961.667
962.778
961.667
961.000
961.000
960.667
960.111
961.333
963.000
963.000
963.222
964.333
965.222
965.778
965.667
965.111
965.000
965.000
966.111
967.000
967.000
967.667
969.333
969.333
968.222
968.000
968.000
966.333
965.333
967.000
967.778
967.222
967.667
968.778
968.111
967.000
965.889
964.778
963.667
963.444
964.556
965.667
966.778
967.000
967.000
966.444
965.778
964.667
963.556
962.444
963.000
964.667
964.556
964.000
965.111
966.111
966.667
966.111
963.889
962.667
962.111
962.889
964.000
964.556
964.778
963.667
963.222
963.778
963.667
963.111
961.667
960.000
960.000
960.222
961.333
962.444
963.556
963.333
962.222
961.111
960.000
957.778
956.222
957.333
958.889
961.111
961.667
961.111
960.111
959.000
959.000
958.556
956.333
955.667
957.333
958.667
959.778
960.000
960.000
958.333
957.000
957.000
956.111
953.889
954.000
955.667
957.778
960.000
960.556
960.667
959.000
957.556
956.444
956.000
956.000
955.111
954.000
956.222
958.000
958.000
957.556
956.444
955.333
954.222
953.556
953.000
954.111
955.222
956.333
957.000
957.000
956.667
956.111
956.000
956.000
955.444
955.222
956.333
957.000
957.000
957.667
958.778
959.000
959.000
957.889
956.889
956.333
956.000
956.000
957.333
959.556
960.444
961.000
960.444
959.667
958.000
957.000
957.000
958.000
959.667
959.556
959.000
960.111
960.889
960.333
960.000
960.000
958.333
955.556
955.889
957.000
958.667
960.222
961.333
961.556
960.444
960.000
960.000
958.222
956.000
957.111
958.222
959.333
960.444
961.556
962.000
962.000
962.000
962.000
963.667
965.333
967.000
969.111
971.889
973.333
973.889
974.000
974.000
973.444
972.889
972.333
972.889
975.111
977.333
979.556
979.111
978.000
978.000
978.333
980.000
980.778
980.222
979.667
979.111
978.556
978.000
978.000
977.889
977.333
976.556
975.444
974.333
973.222
974.333
976.000
976.556
976.778
975.667
975.444
976.556
977.333
977.889
978.889
980.000
982.778
984.444
981.667
978.889
976.111
974.000
972.333
971.111
970.000
967.778
965.778
964.667
963.778
963.222
963.000
963.000
961.667
960.000
958.889
957.556
955.333
954.000
954.000
955.000
956.667
957.000
957.000
957.000
956.889
956.333
955.556
954.444
954.000
954.000
954.444
955.000
956.111
956.778
955.667
954.556
953.444
952.000
950.333
951.778
954.000
954.556
955.222
956.333
957.000
957.000
957.000
957.000
955.222
953.000
953.000
953.222
954.333
954.556
953.444
950.333
945.889
940.111
934.000
930.667
927.444
924.667
922.111
919.889
917.667
915.444
919.000
924.000
935.667
948.111
963.667
981.222
1001.778
1024.333
1048.222
1077.889
1109.000
1137.889
1165.222
1186.333
1201.222
1206.778
1200.333
1185.889
1154.111
1118.000
1068.000
1020.333
982.000
952.556
936.444
929.000
927.333
933.667
942.000
947.000
951.222
952.333
952.556
951.444
950.000
948.333
947.556
947.000
947.556
948.222
949.333
950.000
950.000
949.667
949.111
948.111
947.000
945.889
945.222
946.333
947.222
947.778
947.667
947.111
947.889
949.000
947.333
945.667
944.000
943.000
943.000
944.000
945.667
946.444
947.000
947.000
946.889
946.333
945.111
942.889
942.667
943.778
944.889
946.000
946.556
947.000
947.000
946.556
945.444
945.333
945.889
945.556
945.000
946.667
948.111
948.667
948.778
948.222
947.667
947.111
945.667
944.000
945.667
947.111
947.667
948.222
948.778
948.667
948.111
946.667
945.000
945.000
945.222
946.333
947.444
948.556
949.333
949.889
950.444
951.000
948.778
946.778
945.667
945.444
946.556
947.000
947.000
948.333
950.000
949.444
949.111
949.667
949.778
949.222
949.000
949.000
949.444
950.000
951.667
952.778
951.667
950.333
948.667
948.333
948.889
949.444
950.000
948.889
948.333
950.000
950.778
950.222
949.667
949.111
947.667
946.000
947.111
948.111
948.667
948.778
948.222
948.667
949.778
949.556
949.000
948.444
947.889
947.333
947.000
947.000
948.000
949.667
949.556
949.000
949.000
948.889
948.333
948.000
948.000
948.000
948.000
948.000
948.000
948.556
948.667
947.000
945.778
945.222
945.667
946.778
947.000
947.000
948.111
949.000
949.000
948.556
947.444
947.000
947.000
946.556
946.000
948.222
950.111
950.667
951.000
951.000
950.333
949.222
948.111
947.000
950.889
954.111
954.667
955.889
958.111
959.000
959.000
958.556
958.000
958.556
959.000
959.000
959.444
960.556
961.000
961.000
961.000
961.000
962.667
964.000
964.000
964.667
966.333
968.000
969.667
970.444
971.000
971.556
971.667
970.000
968.556
967.444
968.333
970.556
971.889
973.000
973.556
973.556
971.333
969.556
968.444
967.667
967.111
967.000
967.000
967.556
968.222
969.333
970.000
970.000
970.000
970.000
968.667
967.000
967.556
968.111
968.667
969.222
969.778
970.333
970.889
970.111
969.000
967.333
966.111
966.667
967.000
967.000
967.667
968.778
969.444
970.000
968.889
967.667
966.000
965.667
967.333
968.667
969.778
970.000
970.000
969.444
968.778
967.667
966.333
964.667
964.333
964.889
965.444
966.000
965.444
964.889
964.333
964.444
965.556
965.000
963.333
963.889
965.000
965.556
965.889
965.333
965.222
965.778
964.667
962.444
961.111
960.000
960.556
961.000
961.000
961.667
963.333
963.667
963.111
962.111
961.000
959.333
958.222
959.333
960.667
962.333
962.333
961.222
961.889
963.000
961.889
960.778
959.667
959.667
961.333
963.000
964.667
964.556
964.000
963.444
962.889
962.333
961.333
959.667
959.667
960.778
961.000
961.000
962.111
963.000
963.000
962.111
959.889
959.333
959.889
960.000
960.000
961.111
962.111
962.667
962.333
960.667
960.000
960.000
960.000
960.000
961.111
962.111
962.667
963.667
965.333
966.333
966.889
966.556
966.000
964.333
962.889
962.333
962.444
963.556
964.000
964.000
963.111
962.000
961.444
961.000
961.000
961.222
961.778
963.000
964.667
964.556
964.000
964.556
964.556
962.333
961.222
961.778
963.333
965.556
968.222
971.000
973.778
975.667
974.000
973.667
975.333
975.333
974.222
976.222
979.000
979.000
979.222
980.333
981.222
981.778
982.667
983.778
984.444
985.000
985.000
985.333
987.000
988.222
988.778
988.667
988.111
985.778
983.000
981.889
981.111
981.667
982.000
982.000
982.000
982.000
982.000
982.000
981.444
980.778
979.667
979.667
981.333
984.000
987.333
988.889
990.000
988.333
985.778
979.667
975.333
973.667
973.000
973.000
971.667
970.000
969.444
968.778
967.667
966.333
964.667
964.000
964.000
962.667
961.000
962.111
963.111
963.667
964.222
964.778
964.667
964.111
962.667
961.000
961.556
962.000
962.000
962.444
963.556
964.000
964.000
963.556
963.000
961.889
960.778
959.667
959.222
959.778
960.000
960.000
960.000
960.000
959.444
958.667
957.000
956.222
956.778
957.667
958.778
959.889
961.000
960.444
959.444
956.667
953.889
951.111
948.333
945.556
942.333
939.000
936.778
934.556
932.333
929.000
924.000
920.667
918.444
922.000
927.000
939.778
953.000
968.000
983.444
999.556
1019.000
1040.667
1069.000
1099.000
1130.111
1158.667
1177.000
1190.000
1195.000
1188.333
1173.889
1145.667
1114.000
1070.667
1028.667
992.000
962.889
945.111
936.000
932.667
936.000
941.000
944.333
947.444
949.667
951.444
952.556
953.000
953.000
953.889
955.000
954.444
954.000
954.000
953.556
952.444
953.000
954.667
955.444
956.000
956.000
956.111
956.667
957.000
957.000
955.667
953.444
953.889
955.000
955.556
956.111
956.667
956.778
956.222
955.333
954.222
952.667
951.000
951.556
951.889
951.333
951.667
953.333
954.333
954.889
953.222
951.000
951.556
952.222
953.333
953.778
953.222
953.333
953.889
953.556
953.000
953.556
953.778
952.667
953.111
955.889
957.000
957.000
957.444
958.000
956.889
955.778
954.667
954.000
954.000
954.333
954.889
955.889
957.000
955.889
954.778
953.667
953.000
953.000
952.000
950.333
951.333
953.000
953.556
954.111
954.667
954.111
951.889
951.000
951.000
950.556
950.000
950.556
951.222
952.333
953.444
954.556
955.000
955.000
955.000
955.000
955.556
956.111
956.667
957.444
958.556
958.333
957.222
956.111
955.000
954.444
954.000
954.000
953.778
953.222
953.000
953.000
952.556
952.000
953.111
953.778
952.667
951.778
951.222
952.333
954.556
955.000
955.000
956.667
957.556
955.333
954.222
954.778
954.333
953.222
953.444
954.000
955.111
956.111
956.667
956.333
954.667
953.000
951.333
949.667
948.000
947.444
947.667
951.000
952.778
952.222
952.333
952.889
951.667
950.000
948.333
947.333
949.000
950.000
950.000
951.333
953.556
954.444
955.000
952.778
951.000
951.000
951.222
951.778
953.000
954.667
956.333
958.000
958.000
958.000
958.000
957.778
957.222
958.333
960.556
961.444
962.000
964.778
966.889
966.333
966.000
966.000
965.333
964.222
965.778
968.000
968.556
969.333
971.000
972.000
972.000
971.333
970.222
970.444
971.000
972.111
973.111
973.667
974.222
974.778
975.000
975.000
974.111
973.000
971.889
971.111
971.667
972.222
972.778
974.000
975.667
975.111
974.000
973.444
972.556
970.333
969.000
969.000
969.667
970.778
970.556
970.000
969.444
968.889
968.333
967.556
966.444
966.667
967.778
968.444
969.000
969.556
970.000
970.000
969.556
968.444
967.333
966.222
966.889
968.000
967.444
967.222
968.333
968.333
966.667
966.667
967.778
967.111
966.000
967.111
967.889
967.333
967.444
968.556
968.667
968.111
966.667
965.000
963.889
963.111
963.667
964.000
964.000
963.667
963.111
962.111
961.000
960.444
960.222
961.333
962.000
962.000
962.667
963.778
963.111
962.000
962.000
961.778
960.667
959.778
959.222
960.000
961.667
961.111
960.000
961.111
962.000
962.000
961.778
961.222
960.333
959.222
959.889
961.000
962.111
962.778
961.667
961.222
961.778
961.333
960.222
959.556
959.000
959.000
959.111
959.667
960.667
962.333
963.000
963.000
963.444
964.000
962.333
961.333
963.000
963.556
962.444
961.667
961.111
961.889
963.000
962.444
961.778
960.667
960.444
961.556
962.667
963.778
964.444
965.000
964.444
963.667
962.000
960.556
959.444
959.000
959.000
960.778
963.000
962.444
962.444
964.667
964.889
962.111
960.333
959.222
959.444
960.000
963.333
966.222
967.333
968.889
971.111
972.000
972.000
971.556
971.000
971.556
972.222
973.333
974.889
977.111
978.667
979.778
980.000
980.000
978.333
977.333
979.000
980.667
982.333
983.000
983.000
982.556
982.000
982.000
981.556
979.333
977.556
976.444
976.667
977.778
978.444
979.000
977.889
976.667
975.000
973.333
971.667
971.333
971.889
973.333
975.000
978.333
981.000
981.000
979.667
976.333
972.667
968.778
968.444
969.000
969.000
968.556
966.333
964.333
962.667
961.000
959.333
957.667
956.000
956.000
956.333
958.000
959.444
960.556
961.333
961.889
961.556
961.000
959.333
958.000
958.000
958.222
958.778
959.000
959.000
958.111
957.000
955.889
954.889
954.333
954.000
954.000
954.000
954.000
954.444
955.000
954.444
953.667
952.000
951.222
951.778
952.667
953.778
953.556
953.000
954.111
955.000
955.000
954.778
954.222
953.000
951.333
949.667
948.000
945.222
942.556
940.333
938.333
936.667
934.000
930.667
925.556
920.000
917.778
917.111
922.667
930.444
941.556
954.667
969.111
984.889
1001.000
1023.222
1047.111
1077.667
1107.333
1135.667
1158.000
1176.333
1184.889
1191.000
1178.222
1161.111
1126.667
1089.111
1046.889
1011.000
979.333
958.778
941.000
934.889
930.111
930.667
932.333
935.667
939.667
944.111
946.778
949.000
949.556
949.889
949.333
949.000
949.000
948.000
946.333
945.111
944.000
946.222
947.889
947.333
947.000
947.000
947.000
947.000
947.000
947.000
948.667
950.000
950.000
950.444
951.556
950.667
948.444
948.000
948.000
947.444
947.333
949.000
950.000
950.000
950.333
950.889
950.111
949.000
947.889
946.889
946.333
946.000
946.000
946.333
946.889
947.000
947.000
945.889
945.111
945.667
945.556
944.444
943.667
943.111
944.333
946.000
945.444
945.111
945.667
945.333
943.667
943.000
943.000
943.444
944.000
946.778
948.889
948.333
947.556
946.444
945.667
945.111
945.000
945.000
945.556
946.000
946.000
946.222
946.778
945.667
943.444
943.444
944.000
943.444
943.222
944.333
945.222
945.778
945.667
945.111
945.444
946.000
944.889
943.889
943.333
943.000
943.000
944.000
945.667
946.000
946.000
945.444
944.889
944.333
944.000
944.000
944.333
944.889
946.333
948.000
949.111
949.778
948.667
947.778
947.222
946.333
945.222
945.444
946.000
947.111
948.000
948.000
947.778
947.222
946.667
946.111
946.000
946.000
944.889
944.000
944.000
943.778
943.222
942.333
941.222
940.556
940.000
938.889
938.000
938.000
938.222
938.778
939.333
939.889
939.111
938.000
936.333
934.556
932.333
931.444
932.556
934.000
935.667
937.333
939.000
937.889
936.667
935.000
934.444
935.556
935.667
935.111
936.778
939.000
939.000
939.000
939.000
938.778
938.222
938.000
938.000
939.333
941.000
941.000
941.667
945.000
947.444
948.556
948.333
947.222
948.333
950.000
951.111
952.222
953.333
954.667
956.333
957.000
957.000
957.889
959.000
959.556
959.889
959.333
959.889
962.111
963.667
964.778
964.556
964.000
965.111
965.889
965.333
965.222
965.778
966.000
966.000
966.444
967.000
967.000
967.000
967.000
966.778
966.222
966.000
966.000
966.444
967.000
968.667
970.000
970.000
969.556
968.444
967.333
966.222
966.444
967.000
968.111
969.000
969.000
969.000
969.000
968.000
966.333
964.667
963.000
963.000
963.111
963.667
964.889
967.111
967.333
966.222
964.667
963.000
961.889
961.111
961.667
962.667
964.333
965.333
965.889
965.111
964.000
963.444
963.000
963.000
962.778
962.222
962.667
963.778
964.444
965.000
963.889
963.000
963.000
962.556
961.444
961.333
961.889
962.000
962.000
963.667
964.889
964.333
963.778
963.222
962.667
962.111
962.444
963.000
963.000
963.222
964.333
964.778
964.222
963.000
961.333
960.111
959.000
959.556
960.000
960.000
960.222
960.778
961.333
961.889
960.667
959.000
957.889
957.111
957.667
958.444
959.556
960.000
960.000
960.889
962.000
959.778
958.000
958.000
958.222
958.778
960.000
961.667
962.444
963.000
963.000
962.667
961.000
959.556
958.444
958.333
958.889
961.222
964.000
962.889
962.111
962.667
962.556
961.444
960.000
958.333
958.000
958.000
958.000
958.222
959.333
959.778
959.222
959.000
959.000
958.111
957.000
958.111
959.222
960.333
961.222
961.778
961.667
961.111
960.556
960.000
959.444
959.222
960.333
961.222
961.778
962.333
962.889
962.556
962.000
961.444
960.889
960.333
960.222
960.778
961.333
961.889
963.333
965.000
965.000
964.778
963.667
962.778
962.222
962.667
963.778
965.778
968.000
968.556
969.222
970.333
970.556
969.444
969.000
969.000
970.333
972.000
974.222
976.000
976.000
976.222
976.778
976.667
976.111
976.444
977.000
978.111
979.222
980.333
981.444
982.556
983.000
983.000
982.556
982.000
981.444
980.889
980.333
980.000
980.000
980.333
980.889
980.556
980.000
980.000
979.778
978.667
978.000
978.000
977.333
976.222
978.667
982.000
980.889
979.778
978.667
976.889
974.111
974.333
976.556
979.222
982.000
984.222
985.667
984.000
982.111
979.889
976.667
972.778
970.667
969.000
968.444
967.889
967.333
966.111
963.889
962.000
960.333
960.444
961.000
958.778
957.222
958.333
958.556
957.444
958.000
959.667
959.556
959.000
959.556
959.889
959.333
959.000
959.000
960.000
961.667
962.444
963.000
961.333
960.000
960.000
959.556
958.444
958.667
959.778
960.000
960.000
958.889
958.000
958.000
956.667
953.333
952.333
952.889
955.222
958.000
958.556
959.000
959.000
958.556
957.444
956.000
954.333
954.889
956.000
955.444
954.778
953.667
951.667
948.333
944.333
939.889
936.778
934.000
931.778
929.667
928.000
925.889
923.111
921.667
921.111
926.333
933.000
947.444
962.556
980.333
998.778
1018.222
1042.000
1068.667
1097.556
1127.000
1152.000
1175.222
1191.333
1203.222
1208.778
1204.333
1193.222
1163.444
1129.000
1084.000
1040.222
1001.333
969.333
947.667
937.000
933.667
936.111
940.000
944.444
948.444
950.667
951.778
951.222
950.333
949.222
948.556
948.000
950.778
953.000
953.000
952.333
950.667
949.667
949.111
948.111
947.000
947.556
948.333
950.000
950.778
950.222
950.000
950.000
950.444
951.000
949.333
948.222
949.333
949.778
949.222
949.667
950.778
950.556
950.000
948.889
948.111
948.667
949.444
950.556
951.333
951.889
952.000
952.000
952.556
953.000
953.000
952.333
950.667
950.333
950.889
951.889
953.000
953.556
954.000
954.000
954.000
954.000
953.333
952.222
952.000
952.000
952.000
952.222
953.333
953.778
953.222
952.333
951.222
950.556
950.000
951.111
952.222
953.333
953.778
953.222
953.333
953.889
953.556
953.000
951.333
949.889
949.333
949.667
951.333
952.667
953.778
954.444
955.000
954.444
953.556
951.333
950.000
950.000
951.000
952.667
953.444
954.000
954.556
954.667
953.000
951.556
950.444
950.333
950.889
951.444
952.000
953.111
953.889
953.333
952.556
951.444
951.000
951.000
950.556
950.000
950.556
951.333
953.000
954.000
954.000
953.333
952.222
952.000
952.000
952.556
953.222
954.333
954.778
954.222
954.333
954.889
954.111
953.000
951.333
950.111
950.667
951.444
952.556
952.667
952.111
951.556
951.000
951.000
950.667
949.000
947.778
947.222
947.667
948.778
949.444
950.000
949.444
948.778
947.667
946.556
945.444
946.333
948.556
948.111
947.000
947.556
948.222
949.333
949.333
947.667
947.000
947.000
947.444
948.000
949.111
950.222
951.333
952.444
953.556
955.000
956.667
957.444
958.000
959.667
961.444
963.667
965.222
965.778
966.000
966.000
966.444
967.000
966.444
966.222
967.333
968.000
968.000
969.333
971.556
972.444
973.000
971.333
969.889
969.333
969.667
971.333
972.667
973.778
974.444
975.000
974.444
973.778
972.667
971.778
971.222
972.333
974.556
975.889
977.000
975.889
975.111
975.667
975.556
974.444
973.000
971.333
972.333
974.000
974.000
974.000
974.000
974.000
974.000
973.667
973.111
972.111
971.000
971.556
972.444
974.667
975.556
974.444
974.333
974.889
974.556
974.000
971.778
970.111
970.667
970.778
970.222
970.333
970.889
971.000
971.000
969.889
968.778
967.667
967.444
968.556
969.667
970.778
970.556
970.000
970.000
969.778
968.667
967.778
967.222
967.000
967.000
967.444
968.000
967.444
967.111
967.667
967.778
967.222
966.000
964.333
964.889
966.000
966.556
967.333
969.000
969.556
968.444
967.000
965.333
965.444
966.000
966.000
965.889
965.333
965.222
965.778
966.333
966.889
965.222
963.000
961.889
961.111
961.667
962.000
962.000
963.333
965.556
965.556
965.000
963.333
961.778
960.667
960.222
960.778
961.333
961.889
962.889
964.000
964.000
963.667
962.000
960.778
960.222
960.333
960.889
960.556
960.000
963.333
965.778
964.667
964.000
964.000
963.000
961.333
961.444
962.000
963.111
964.000
964.000
964.444
965.556
964.667
962.444
960.667
959.000
960.111
961.222
962.333
963.000
963.000
963.000
963.000
962.111
961.000
959.889
959.111
959.667
960.444
961.556
962.667
963.778
964.444
965.000
962.778
960.889
960.333
960.667
962.333
963.333
963.889
964.889
966.000
965.444
965.000
965.000
964.333
962.667
963.000
964.667
965.000
965.000
966.111
966.778
965.667
965.000
965.000
964.000
962.333
962.889
964.000
965.667
967.111
967.667
968.222
968.778
968.667
968.111
969.333
971.000
973.222
975.333
977.000
977.556
976.444
976.000
976.000
976.000
976.000
975.444
975.556
978.333
980.000
980.000
980.333
980.889
982.333
984.000
984.000
983.778
982.667
982.222
982.778
983.667
984.778
984.111
983.000
982.444
981.889
981.333
980.556
979.444
979.000
979.000
981.222
984.000
984.000
983.778
982.667
981.333
979.667
979.333
979.889
982.222
985.000
986.667
988.111
988.667
987.667
984.333
980.333
975.889
973.222
971.000
969.889
968.889
968.333
967.778
967.222
966.000
964.333
963.111
962.000
960.333
959.111
959.667
959.778
959.222
960.000
961.667
960.667
959.000
958.444
957.778
956.667
956.222
956.778
957.333
957.889
958.444
959.000
959.556
959.556
957.333
955.778
955.222
955.333
955.889
956.889
958.000
957.444
957.111
957.667
957.556
956.444
956.000
956.000
956.444
957.000
957.000
957.111
957.667
957.778
957.222
956.333
955.222
952.333
949.000
946.778
944.222
940.333
937.556
936.444
935.333
934.222
934.000
934.000
931.222
928.889
928.333
926.667
923.333
919.333
914.889
911.778
909.000
912.333
916.222
922.333
931.111
943.889
957.333
971.222
985.556
1000.000
1020.000
1041.000
1066.000
1091.667
1118.333
1143.333
1167.222
1182.667
1196.000
1199.333
1198.444
1180.667
1156.444
1122.556
1081.667
1036.111
1000.333
967.000
950.333
936.667
935.000
934.667
936.333
940.333
945.889
947.444
948.000
949.111
950.000
950.000
950.000
950.000
950.667
951.778
952.000
952.000
950.889
949.667
948.000
947.889
950.111
951.333
951.889
951.556
951.000
951.000
950.778
949.667
948.556
947.444
948.667
951.444
951.556
951.000
952.111
952.556
950.333
948.778
948.222
948.333
948.889
950.778
953.000
953.000
952.889
952.333
951.778
951.222
950.000
948.333
948.889
950.000
951.667
953.111
953.667
953.778
953.222
952.333
951.222
949.667
948.000
949.667
951.222
952.333
953.000
953.000
952.333
951.222
949.222
947.000
946.444
946.333
948.000
949.889
952.111
952.333
951.222
951.444
952.000
952.556
952.778
951.667
951.000
951.000
951.667
952.778
953.889
955.000
955.000
954.556
952.333
951.222
951.778
951.000
949.333
950.778
953.000
952.444
951.889
951.333
951.000
951.000
950.667
950.111
950.889
952.000
952.556
952.889
952.333
951.778
951.222
949.667
947.444
947.444
948.000
949.667
951.222
952.333
953.889
956.111
955.333
952.556
952.000
952.000
949.222
947.111
947.667
948.222
948.778
950.000
951.667
952.000
952.000
951.444
950.778
949.667
949.444
950.556
951.667
952.778
952.556
952.000
953.111
953.778
952.667
951.556
950.444
950.000
950.000
950.444
951.000
950.444
949.778
948.667
947.556
946.444
946.333
946.889
947.444
948.000
949.111
950.000
950.000
950.222
950.778
951.000
951.000
948.778
946.000
947.667
949.111
949.667
950.667
952.333
952.333
951.222
951.444
952.000
950.889
950.444
952.667
954.444
955.556
957.000
958.667
959.444
960.000
960.556
960.778
959.667
959.667
961.333
963.000
964.667
965.889
967.000
966.444
966.000
966.000
966.667
968.333
969.333
969.889
970.444
971.000
971.556
972.000
972.000
971.333
969.667
969.000
969.000
968.111
967.000
969.778
972.000
972.000
971.778
971.222
970.667
970.111
969.111
968.000
968.556
969.444
971.667
973.000
973.000
973.667
974.778
974.111
973.000
972.444
972.111
972.667
973.000
973.000
972.667
972.111
971.556
971.000
969.333
967.667
966.000
965.222
965.778
967.000
968.667
968.556
968.000
968.000
968.000
968.000
967.778
967.222
967.000
967.000
967.444
968.000
969.111
969.667
968.000
966.333
964.667
963.333
962.222
962.889
964.000
965.111
966.222
967.333
967.111
964.889
964.667
965.778
964.222
962.000
963.111
964.111
964.667
965.222
965.778
966.333
966.889
966.111
965.000
961.667
959.222
960.333
961.222
961.778
962.333
962.889
963.444
964.000
962.333
960.667
959.000
958.444
959.556
960.000
960.000
960.444
961.000
960.444
959.889
959.333
958.556
957.444
957.333
957.889
958.444
959.000
960.667
961.889
961.333
961.000
961.000
959.667
957.444
958.333
960.000
961.111
961.889
961.333
961.222
961.778
961.333
960.222
958.667
957.000
958.111
959.000
959.000
959.444
960.556
961.333
961.889
961.111
960.000
958.889
958.222
959.333
960.000
960.000
960.667
961.778
960.222
958.000
958.000
957.667
956.000
955.222
955.778
956.667
957.778
958.889
960.000
960.556
960.556
958.333
957.000
957.000
957.333
957.889
959.778
962.000
962.000
961.889
961.333
960.333
958.667
958.667
959.778
960.444
961.000
962.667
964.333
966.000
967.222
967.778
969.000
970.667
971.444
972.000
971.444
971.111
971.667
972.222
972.778
972.667
972.111
972.889
974.000
973.444
973.333
975.000
976.444
977.556
979.667
982.444
982.556
982.000
980.333
978.778
977.667
977.444
978.556
979.000
979.000
978.556
978.000
978.556
978.667
977.000
976.000
976.000
976.667
977.778
977.556
977.000
975.333
974.000
974.000
973.778
973.222
974.333
976.556
978.333
980.000
981.667
982.778
981.667
979.889
977.111
974.333
971.556
969.667
968.000
968.000
968.222
969.333
970.000
970.000
968.667
966.444
963.333
960.000
958.333
956.889
956.333
956.444
957.556
958.000
958.000
957.556
957.000
955.333
953.778
952.667
952.444
953.556
954.000
954.000
954.444
955.000
954.444
953.889
953.333
952.556
951.444
951.333
951.889
952.444
953.000
953.556
954.222
955.333
955.111
952.889
951.333
950.222
950.000
950.000
951.667
953.222
954.333
954.778
954.222
952.667
950.444
948.667
947.000
944.222
941.333
938.000
935.111
932.889
930.000
926.667
921.556
916.000
913.222
911.333
913.000
916.889
924.111
935.000
948.333
960.778
973.000
987.444
1003.778
1027.667
1054.000
1084.000
1112.000
1138.667
1157.333
1174.000
1179.000
1180.889
1170.333
1152.444
1123.556
1089.000
1050.667
1018.111
987.000
966.444
947.778
936.667
929.111
926.889
927.333
929.556
932.667
936.000
937.667
939.333
941.000
942.000
942.000
942.000
942.000
941.111
940.000
942.222
944.111
944.667
944.556
943.444
942.667
942.111
942.444
943.000
941.333
940.556
943.333
945.000
945.000
945.333
945.889
945.556
945.000
945.000
944.667
943.000
942.444
943.556
944.000
944.000
943.111
942.000
943.111
943.889
943.333
942.778
942.222
942.000
942.000
942.889
944.000
945.111
946.000
946.000
945.556
944.444
944.000
944.000
944.444
945.000
945.556
946.111
946.667
946.778
946.222
944.667
942.444
942.000
942.000
942.000
941.889
941.333
941.222
941.778
942.333
942.889
941.667
940.000
940.000
940.000
940.000
940.222
940.778
941.333
941.889
941.556
941.000
939.889
939.000
939.000
939.222
939.778
939.667
939.111
939.444
940.000
941.111
942.000
942.000
941.778
941.222
941.333
941.889
942.000
942.000
943.111
943.889
943.333
943.000
943.000
941.667
939.444
939.444
940.000
941.111
942.222
943.333
943.778
943.222
942.333
941.222
940.556
940.000
941.111
942.000
942.000
942.444
943.556
943.333
942.222
941.556
941.000
940.444
940.222
941.333
942.444
943.556
944.667
945.778
945.111
944.000
942.333
940.889
940.333
940.222
940.778
941.000
941.000
942.333
944.000
942.333
940.667
939.000
937.111
934.889
934.667
935.778
936.000
936.000
936.556
937.000
937.000
936.778
936.222
935.333
934.222
935.333
937.000
936.444
936.222
937.333
937.556
936.444
935.667
935.111
935.000
935.000
935.556
936.111
936.667
937.667
939.333
940.333
940.889
941.444
942.000
942.556
943.556
946.333
948.222
948.778
949.333
949.889
950.000
950.000
950.000
950.222
951.333
952.222
952.778
955.000
958.333
960.778
963.000
962.444
961.778
960.667
959.778
959.222
959.000
959.000
959.889
961.000
962.667
963.889
963.333
962.333
960.667
959.333
958.222
958.000
958.000
960.222
962.000
962.000
962.000
962.000
962.333
962.889
962.556
962.000
960.889
960.333
962.000
963.222
963.778
964.000
964.000
963.556
963.000
961.333
960.000
960.000
960.222
960.778
961.000
961.000
961.444
962.000
959.778
957.889
957.333
957.000
957.000
958.000
959.667
960.444
961.000
961.000
960.778
959.667
958.778
958.222
957.667
957.111
958.333
960.000
962.222
964.000
964.000
963.111
960.889
960.000
960.000
959.111
958.000
959.111
960.000
960.000
959.778
959.222
958.000
956.333
954.667
953.000
954.111
954.889
954.333
954.222
954.778
955.000
955.000
953.667
952.000
952.000
952.333
954.000
955.222
955.778
956.000
956.000
954.667
953.000
953.556
954.000
954.000
953.778
953.222
954.000
955.667
956.444
957.000
956.444
955.778
954.667
953.778
953.222
953.000
953.000
953.000
953.000
954.111
955.000
955.000
954.778
954.222
953.333
952.222
951.556
951.000
951.000
951.333
953.000
954.000
954.000
953.333
952.222
951.111
950.000
951.111
952.222
953.333
954.667
956.333
956.000
954.333
954.000
954.000
954.556
955.111
955.667
956.000
956.000
956.000
956.000
956.000
956.000
955.444
954.889
954.333
953.556
952.444
952.667
953.778
955.333
957.000
955.889
954.889
954.333
954.000
954.000
953.667
953.111
954.333
956.000
956.556
957.111
957.667
957.556
956.444
955.000
953.333
953.000
953.000
955.778
958.333
960.000
961.000
961.000
961.000
961.000
960.556
960.000
962.222
964.000
964.000
964.889
967.111
969.000
970.667
969.667
968.000
967.444
967.444
969.667
972.333
975.667
977.333
977.889
978.000
978.000
976.333
974.778
973.667
973.222
973.778
974.333
974.889
974.556
974.000
973.444
972.778
971.667
970.778
970.222
968.667
966.444
966.889
968.000
968.556
969.333
971.000
972.222
972.778
972.667
972.111
970.667
969.000
966.778
964.889
964.333
963.778
963.222
961.000
957.667
955.222
953.000
953.556
954.000
954.000
954.000
954.000
953.667
953.111
951.667
950.000
950.000
950.222
951.333
951.778
951.222
951.667
952.778
952.111
951.000
949.889
948.778
947.667
947.222
947.778
948.333
948.889
950.778
953.000
951.333
949.667
948.000
946.778
946.222
946.000
946.000
947.778
950.000
951.111
951.778
950.667
949.556
948.444
947.667
947.111
947.444
948.000
948.556
949.111
949.667
949.556
948.444
946.333
943.556
939.444
935.000
932.778
930.667
929.000
927.778
927.222
924.333
919.889
916.333
913.000
915.222
918.889
928.333
939.556
953.444
968.333
983.889
1001.222
1019.000
1042.333
1066.444
1093.667
1120.222
1145.778
1166.333
1183.556
1190.111
1194.000
1182.889
1168.111
1138.667
1104.333
1062.667
1024.667
989.111
966.000
946.000
938.222
931.444
928.667
927.667
929.333
931.333
933.556
936.222
939.000
940.111
941.222
942.333
942.556
941.444
941.000
941.000
940.556
940.000
942.222
944.111
944.667
945.444
946.556
946.333
945.222
944.556
944.000
941.778
940.222
941.333
942.444
943.556
944.000
944.000
943.556
943.000
943.000
942.333
939.000
937.667
939.333
940.667
941.778
942.444
943.000
941.889
940.667
939.000
937.556
936.444
936.333
936.889
938.778
941.000
940.444
939.778
938.667
938.667
940.333
940.000
938.333
938.444
939.000
939.556
940.000
940.000
940.222
940.778
940.333
939.222
939.000
939.000
939.556
940.222
941.333
942.000
942.000
942.000
942.000
941.111
940.000
938.889
938.222
939.333
940.222
940.778
942.333
944.556
944.111
943.000
941.889
940.667
939.000
938.444
939.556
940.000
940.000
940.444
941.000
940.444
939.889
939.333
938.333
936.667
936.667
937.778
938.444
939.000
940.111
940.889
940.333
939.778
939.222
938.000
936.333
936.889
938.000
938.000
938.111
938.667
939.222
939.778
940.333
940.889
940.111
939.000
938.444
938.111
938.667
939.444
940.556
941.667
942.778
943.000
943.000
940.778
939.222
940.333
940.778
940.222
940.000
940.000
940.000
940.000
938.333
937.000
937.000
936.778
936.222
937.333
939.556
939.111
938.000
935.778
933.889
933.333
932.556
931.444
931.000
931.000
931.000
931.000
931.000
931.000
931.000
930.778
930.222
928.667
926.444
926.444
927.000
929.778
932.111
932.667
932.778
932.222
932.333
932.889
933.000
933.000
934.667
936.333
938.000
939.444
940.556
942.000
943.667
943.556
943.000
943.556
944.333
946.000
947.889
950.111
951.000
951.000
951.444
952.000
950.889
949.889
949.333
949.889
952.111
954.000
955.667
956.889
958.000
958.000
958.000
958.000
957.556
956.444
956.333
956.889
958.333
960.000
961.667
962.778
961.667
960.778
960.222
960.000
960.000
960.000
960.000
960.556
961.111
961.667
962.000
962.000
961.667
961.111
959.667
958.000
959.111
960.000
960.000
960.444
961.556
961.333
960.222
959.111
958.000
956.889
956.222
957.333
958.222
958.778
959.000
959.000
959.444
960.000
957.778
955.778
954.667
954.444
955.556
957.333
959.556
960.444
961.000
959.889
958.667
957.000
955.778
955.222
955.000
955.000
955.444
956.000
957.111
957.889
957.333
956.556
955.444
954.000
952.333
952.444
953.000
954.667
956.222
957.333
957.778
957.222
956.333
955.222
953.222
951.000
950.444
950.444
952.667
954.444
955.556
956.333
956.889
954.778
952.000
952.556
953.333
955.000
956.222
956.778
957.000
957.000
958.333
960.000
958.333
956.556
954.333
953.222
953.778
954.333
954.889
955.444
956.000
956.556
956.667
955.000
953.111
950.889
950.667
951.778
952.444
953.000
953.556
954.111
954.667
954.111
951.889
951.333
951.889
952.000
952.000
953.111
954.111
954.667
954.556
953.444
953.000
953.000
952.111
951.000
951.556
952.333
954.000
955.000
955.000
954.667
954.111
953.556
953.000
952.444
952.111
952.667
953.222
953.778
955.000
956.667
957.000
957.000
954.778
953.222
954.333
955.222
955.778
956.667
957.778
957.111
956.000
955.444
954.889
954.333
953.778
953.222
953.333
953.889
955.333
957.000
957.556
958.000
958.000
958.000
958.000
958.000
958.000
960.222
963.000
965.222
967.222
968.333
968.778
968.222
967.667
967.111
966.556
966.000
967.667
969.333
971.000
972.667
974.333
975.333
975.889
976.000
976.000
976.000
976.111
976.667
977.444
978.556
979.333
979.889
979.111
978.000
976.889
975.667
974.000
973.000
973.000
974.000
975.667
976.000
976.000
974.889
973.556
971.333
970.000
970.000
972.000
975.333
976.889
978.000
978.556
978.111
973.667
969.667
966.333
964.333
963.222
961.222
959.000
960.111
960.778
959.667
958.778
958.222
957.000
955.333
953.667
952.000
951.444
951.222
952.333
953.444
954.556
955.333
955.889
956.444
957.000
954.222
952.111
952.667
953.444
954.556
955.667
956.778
955.222
953.000
953.556
953.444
950.667
949.000
949.000
949.667
950.778
951.000
951.000
952.667
953.556
951.333
949.556
948.444
949.000
950.667
950.556
950.000
951.667
952.667
951.000
949.556
948.444
947.667
947.111
947.000
947.000
945.333
943.333
940.000
936.444
932.556
929.667
927.444
923.889
920.000
916.111
913.667
917.000
923.000
933.000
945.667
960.111
976.333
993.000
1011.333
1031.556
1059.333
1088.222
1118.778
1146.000
1171.000
1187.556
1202.000
1203.667
1200.556
1178.333
1149.667
1111.333
1070.000
1026.667
992.222
960.000
945.000
932.556
930.333
930.556
934.444
939.000
944.000
946.333
948.000
948.000
947.889
947.333
946.556
945.444
944.667
944.111
943.556
943.000
944.111
944.667
943.000
942.889
945.111
945.667
945.111
944.111
943.000
943.000
943.222
944.333
945.444
946.556
947.000
947.000
945.222
943.000
943.000
943.111
943.667
944.667
946.333
947.333
947.889
947.556
947.000
944.778
942.889
942.333
942.444
943.556
944.333
944.889
945.889
947.000
945.889
944.667
943.000
942.222
942.778
943.000
943.000
943.889
945.000
945.556
945.889
945.333
945.000
945.000
944.333
943.222
942.556
942.000
943.111
944.333
946.000
946.556
945.444
944.667
944.111
944.444
945.000
946.111
947.000
947.000
947.444
948.556
949.000
949.000
948.556
948.000
946.333
945.222
946.333
946.778
946.222
946.333
946.889
947.444
948.000
946.889
945.778
944.667
944.000
944.000
944.667
945.778
948.222
951.000
949.889
948.778
947.667
946.333
944.667
944.000
944.000
944.889
946.000
947.111
948.111
948.667
948.556
947.444
946.333
945.222
946.333
948.000
949.111
950.111
950.667
951.000
951.000
950.333
949.222
948.111
947.000
948.111
949.000
949.000
949.444
950.556
950.667
950.111
949.556
949.000
946.222
944.111
944.667
944.556
943.444
945.333
949.222
948.667
947.000
945.333
943.778
942.667
942.444
943.556
944.333
944.889
946.778
949.000
948.444
947.889
947.333
946.111
943.889
944.333
946.556
947.889
949.000
949.556
950.111
950.667
951.000
951.000
952.000
953.667
953.556
953.000
956.889
960.222
961.333
962.000
962.000
962.333
962.889
962.556
962.000
964.222
966.222
967.333
968.000
968.000
968.667
969.778
969.111
968.000
967.444
967.111
967.667
967.778
967.222
968.333
970.556
970.556
970.000
969.444
968.667
967.000
966.000
966.000
967.000
968.667
969.000
969.000
969.556
969.889
969.333
968.333
966.667
966.333
966.889
967.000
967.000
969.778
972.000
972.000
971.333
969.667
968.333
967.222
967.889
969.000
970.111
970.889
970.333
969.556
968.444
967.333
966.222
965.556
965.000
964.444
964.444
966.667
968.000
968.000
968.333
968.889
967.667
966.000
964.889
963.889
963.333
963.889
966.111
967.000
967.000
967.000
967.000
965.889
964.889
964.333
964.000
964.000
964.333
964.889
966.333
968.000
966.333
965.111
965.667
965.333
963.667
963.000
963.000
963.444
964.000
965.667
967.000
967.000
965.889
963.111
961.667
961.111
961.889
963.000
963.000
963.222
964.333
964.778
964.222
962.667
960.444
958.667
957.000
958.667
960.000
960.000
960.444
961.556
961.667
961.111
961.444
962.000
959.778
958.222
959.333
960.444
961.556
962.333
962.889
963.000
963.000
961.889
961.000
961.000
961.000
961.000
961.667
962.778
963.000
963.000
963.556
963.778
962.667
962.000
962.000
962.000
962.000
962.000
962.000
963.667
964.889
964.333
962.889
960.111
959.000
959.000
958.556
958.000
959.111
960.222
961.333
962.222
962.778
962.333
961.222
959.667
958.000
959.111
960.222
961.333
962.222
962.778
963.333
963.889
964.444
965.000
962.222
960.222
961.333
962.444
963.556
965.667
968.444
969.444
970.000
971.111
972.222
973.333
974.667
976.333
977.333
977.889
978.444
979.000
978.444
978.000
978.000
977.556
976.444
976.667
977.778
978.444
979.000
981.222
983.000
983.000
983.222
983.778
983.333
982.222
983.333
985.000
984.444
984.222
985.333
985.556
984.444
983.333
982.222
980.667
979.000
979.000
979.111
979.667
980.000
980.000
980.000
980.000
979.111
978.000
975.778
974.111
974.667
975.667
977.333
979.667
982.444
984.778
987.000
985.889
984.333
981.000
977.889
975.111
973.667
973.111
972.111
971.000
969.889
968.333
965.000
962.333
960.667
959.667
959.111
959.000
959.000
958.444
958.000
958.000
958.222
958.778
958.333
957.222
956.556
956.000
956.556
957.333
959.000
959.333
957.667
956.333
955.222
954.111
953.000
953.556
953.889
953.333
953.222
953.778
954.333
954.889
955.444
956.000
954.333
953.111
953.667
954.444
955.556
956.000
956.000
956.000
956.000
954.333
952.000
947.000
942.444
938.556
935.667
933.444
931.667
930.000
926.667
923.111
918.667
915.778
915.222
920.333
929.222
940.778
953.000
969.111
985.889
1005.333
1026.778
1051.222
1077.667
1105.444
1132.333
1159.000
1175.111
1188.111
1188.667
1180.778
1160.222
1130.667
1095.111
1053.333
1010.000
980.000
953.667
942.000
935.000
935.000
937.333
941.222
944.667
948.000
948.556
949.000
949.000
949.222
949.778
950.333
950.889
951.444
952.000
950.889
949.889
949.333
949.222
949.778
950.667
951.778
952.889
954.000
953.444
952.778
951.667
950.333
948.667
948.000
948.000
948.889
950.000
950.556
951.000
951.000
950.333
948.667
947.667
947.111
946.556
946.000
947.111
948.111
948.667
949.000
949.000
948.667
948.111
947.111
946.000
947.111
948.111
948.667
949.222
949.778
950.333
950.889
950.111
949.000
947.889
947.444
949.667
951.222
951.778
952.667
953.778
953.556
953.000
953.000
952.667
951.000
950.222
950.778
952.000
953.667
953.111
952.000
951.444
951.000
951.000
950.556
949.444
949.000
949.000
950.778
953.000
953.000
952.667
951.000
949.778
949.222
948.667
948.111
947.556
947.000
948.667
950.000
950.000
950.444
951.556
951.333
950.222
949.556
949.000
950.111
951.222
952.333
953.444
954.556
954.000
952.333
952.444
953.000
951.889
951.111
951.667
952.667
954.333
955.667
956.778
957.000
957.000
954.778
953.000
953.000
953.222
953.778
954.667
955.778
955.111
954.000
954.000
953.889
953.333
952.556
951.444
951.333
951.889
951.556
951.000
951.000
951.000
951.000
950.778
950.222
949.667
949.111
948.556
948.000
949.667
951.333
953.000
953.556
952.444
951.667
951.111
949.667
948.000
948.556
949.111
949.667
950.444
951.556
951.667
951.111
950.111
949.000
948.444
948.111
948.667
949.667
951.333
952.333
952.889
953.000
953.000
953.000
953.111
953.667
954.000
954.000
954.667
955.778
956.889
958.000
958.556
958.778
957.667
957.000
957.000
957.333
957.889
959.778
962.000
963.111
964.111
964.667
964.556
963.444
962.667
962.111
964.222
967.000
967.000
967.444
969.667
970.778
970.222
969.000
967.333
966.556
966.000
967.667
969.111
969.667
970.667
972.333
972.333
971.222
971.000
971.000
969.889
969.111
969.667
970.444
971.556
972.667
973.778
973.111
972.000
970.889
969.778
968.667
967.556
966.444
966.000
966.000
966.889
968.000
968.000
967.778
966.667
965.333
963.667
963.333
963.889
964.000
964.000
964.556
964.889
964.333
964.444
965.556
965.333
964.222
963.111
962.000
962.000
962.333
964.000
965.000
965.000
964.667
964.111
962.222
960.000
960.556
961.000
961.000
961.667
963.333
963.333
962.222
962.444
963.000
961.889
961.222
962.333
963.000
963.000
963.000
963.000
963.444
964.000
963.444
962.889
962.333
961.778
961.222
961.000
961.000
961.000
961.000
960.444
959.667
958.000
956.556
955.444
955.667
956.778
959.222
962.000
960.333
959.111
959.667
959.556
958.444
958.333
958.889
959.000
959.000
959.556
960.000
960.000
960.222
960.778
960.333
959.222
957.222
955.000
956.111
957.222
958.333
959.000
959.000
958.667
958.111
957.556
957.000
956.444
956.111
956.667
957.444
958.556
959.333
959.889
960.444
961.000
958.778
956.778
955.667
955.444
956.556
957.667
958.778
959.000
959.000
959.556
959.889
959.333
958.556
957.444
958.000
959.667
960.000
960.000
961.111
962.000
962.000
961.556
960.444
959.333
958.222
957.111
956.000
957.667
959.444
961.667
963.000
963.000
964.000
965.667
966.000
966.000
968.222
970.111
970.667
971.000
971.000
971.333
971.889
972.000
972.000
970.889
969.889
969.333
969.667
971.333
973.000
974.667
975.889
977.000
977.556
977.667
976.000
975.222
975.778
976.667
977.778
977.111
976.000
977.667
978.667
977.000
975.778
975.222
975.333
975.889
977.778
980.000
980.000
979.778
978.667
977.333
975.667
974.333
973.222
974.333
976.000
978.778
980.778
979.667
977.667
974.333
971.000
967.667
964.778
962.000
962.000
961.556
959.333
957.778
957.222
956.000
954.333
954.000
954.000
952.889
952.111
952.667
953.667
955.333
956.000
956.000
956.444
957.000
955.333
953.778
952.667
952.000
952.000
953.000
954.667
955.000
955.000
954.444
954.000
954.000
953.556
952.444
952.667
953.778
954.000
954.000
954.556
954.778
953.667
953.000
953.000
952.000
950.333
949.556
949.000
947.333
945.222
941.333
937.667
934.333
931.667
929.444
926.778
924.000
919.556
915.333
912.000
912.667
919.333
928.333
938.889
948.111
957.000
965.333
974.444
986.667
1000.444
1016.556
1037.000
1060.333
1088.556
1118.000
1141.333
1163.222
1179.333
1193.444
1204.556
1212.000
1217.000
1210.444
1201.000
1179.333
1155.889
1125.333
1093.222
1058.778
1028.000
999.667
976.667
955.000
945.000
936.333
933.000
931.444
932.556
935.000
938.333
939.889
941.000
943.222
945.444
947.667
949.222
949.778
948.333
945.556
944.556
944.000
944.000
943.778
942.667
942.444
943.556
943.667
943.111
943.444
944.000
943.444
943.222
944.333
945.222
945.778
946.667
947.778
947.556
947.000
944.778
942.667
941.000
940.667
942.333
943.333
943.889
944.889
946.000
947.111
947.667
946.000
945.000
945.000
944.667
944.111
944.889
946.000
943.778
942.111
942.667
942.778
942.222
942.000
942.000
943.333
945.000
946.111
946.778
945.667
944.556
943.444
942.000
940.333
938.667
937.000
939.222
941.222
942.333
942.778
942.222
942.667
943.778
943.111
942.000
941.444
941.111
941.667
942.444
943.556
943.667
943.111
944.333
946.000
946.000
945.778
944.667
944.444
945.556
946.000
946.000
946.000
946.000
945.444
944.444
941.667
940.000
940.000
940.333
940.889
941.444
942.000
943.667
945.000
945.000
944.778
944.222
943.000
941.333
941.000
941.000
942.667
944.000
944.000
944.667
946.333
946.667
946.111
944.222
942.000
943.667
945.111
945.667
946.444
947.556
948.333
948.889
947.667
946.000
944.333
942.667
941.000
940.222
940.778
941.000
941.000
941.000
941.000
938.778
936.333
933.000
931.444
932.556
932.333
931.222
931.444
932.000
933.667
934.778
933.667
932.556
931.444
930.333
929.222
930.778
933.000
932.444
932.222
933.333
933.778
933.222
932.000
930.333
931.333
933.000
934.667
936.444
938.667
940.222
940.778
940.667
940.111
940.889
942.000
942.000
942.889
947.333
950.444
951.556
952.667
953.778
954.000
954.000
954.556
955.222
956.333
957.667
959.333
961.333
963.556
962.222
960.000
960.556
960.444
957.667
956.667
958.333
960.667
963.444
964.000
964.000
964.000
963.778
962.667
961.111
958.889
959.333
961.556
962.444
963.000
963.556
963.889
963.333
962.556
961.444
960.000
958.333
959.778
962.000
962.556
962.889
962.333
962.222
962.778
962.667
962.111
962.000
962.000
962.000
962.222
963.333
963.778
963.222
962.667
962.111
962.000
962.000
960.889
960.111
960.667
960.333
958.667
959.000
960.667
960.556
960.000
957.778
956.000
956.000
956.222
956.778
957.333
957.889
958.889
960.000
960.000
959.889
959.333
957.889
955.111
954.667
955.778
956.444
957.000
957.000
956.778
955.667
954.778
954.222
953.333
952.222
952.000
952.000
953.667
955.222
956.333
957.000
957.000
957.000
957.000
956.111
955.000
956.111
957.000
957.000
957.222
957.778
957.667
957.111
957.000
957.000
955.333
954.111
954.667
954.556
953.444
953.667
954.778
955.000
955.000
953.889
952.778
951.667
951.222
951.778
952.333
952.889
953.889
955.000
955.000
955.000
955.000
954.333
952.667
953.000
954.667
955.444
956.000
956.556
956.889
956.333
955.778
955.222
953.333
950.556
950.000
950.000
951.111
952.444
954.667
955.556
954.444
953.000
951.333
951.889
953.000
953.556
954.222
955.333
956.000
956.000
955.000
953.333
953.000
953.000
953.556
954.000
954.000
954.667
956.333
956.667
956.111
956.000
956.000
957.111
957.556
955.333
955.556
959.444
962.000
963.667
964.889
966.000
967.667
968.889
968.333
967.778
967.222
967.667
968.778
969.444
970.000
971.667
973.333
975.000
975.556
974.444
973.667
973.111
974.333
976.000
977.667
979.000
979.000
978.333
976.667
975.000
973.333
972.556
972.000
970.333
969.333
971.000
972.667
974.333
974.333
973.222
972.111
971.000
969.333
968.222
969.333
970.889
973.111
975.000
976.667
977.444
978.000
976.333
974.444
971.667
969.556
968.444
968.000
968.000
967.111
966.000
963.222
960.556
958.333
956.111
953.889
953.000
953.000
953.000
953.000
952.444
952.000
952.000
951.333
949.667
948.667
948.111
949.778
952.000
952.556
953.111
953.667
954.222
954.778
953.333
950.556
950.000
950.000
951.667
953.000
953.000
953.222
953.778
954.333
954.889
954.111
953.000
953.000
952.889
952.333
952.222
952.778
953.000
953.000
953.000
953.000
952.444
951.667
950.000
949.222
949.778
948.667
946.444
942.889
939.000
934.556
930.444
927.667
924.444
920.556
916.667
912.778
912.000
912.000
919.222
928.000
943.000
958.222
973.778
991.667
1011.111
1035.889
1062.000
1093.667
1124.556
1152.333
1176.556
1195.444
1203.000
1203.000
1186.556
1166.000
1126.000
1085.000
1040.000
999.889
967.111
945.333
930.889
927.111
926.000
928.778
932.111
937.667
941.444
942.556
943.667
944.778
944.111
943.000
941.333
940.556
943.333
944.111
941.889
942.000
943.667
944.889
946.000
946.556
946.778
945.667
944.556
943.444
943.667
944.778
944.556
944.000
945.111
946.000
946.000
945.556
944.444
943.000
941.333
941.889
943.000
944.667
946.222
947.333
948.000
948.000
946.333
943.556
944.333
946.000
944.889
944.222
945.333
946.444
947.556
948.000
948.000
945.778
943.000
943.556
943.778
942.667
942.444
943.556
944.333
944.889
944.556
944.000
944.000
943.889
943.333
943.667
945.333
946.667
947.778
947.556
947.000
947.000
946.889
946.333
945.333
943.667
943.333
943.889
944.000
944.000
945.111
946.000
946.000
945.111
942.889
942.000
942.000
942.444
943.000
943.556
943.778
942.667
942.222
942.778
942.667
942.111
941.556
941.000
941.556
942.111
942.667
943.444
944.556
944.333
943.222
943.444
944.000
944.000
944.111
944.667
944.556
943.444
944.667
947.444
947.556
947.000
946.444
945.556
943.333
942.667
944.333
945.333
945.889
946.889
948.000
947.444
946.556
944.333
943.000
943.000
943.000
943.000
943.444
944.000
942.889
942.000
942.000
941.778
941.222
939.667
937.444
937.444
938.000
939.667
940.889
940.333
940.000
940.000
938.667
936.444
936.000
936.000
936.556
937.000
937.000
937.000
937.000
937.333
937.889
936.667
935.000
935.000
935.556
938.333
939.778
939.222
940.000
941.667
942.444
943.000
943.556
943.778
942.667
943.333
946.667
948.667
949.778
951.778
954.000
955.111
955.667
954.000
953.444
954.556
955.333
955.889
958.222
961.000
960.444
960.444
962.667
964.000
964.000
963.000
961.333
961.889
963.000
963.556
964.444
966.667
967.556
966.444
966.000
966.000
965.111
964.000
964.556
965.000
965.000
965.667
967.333
967.667
967.111
966.556
966.000
965.444
965.222
966.333
967.222
967.778
968.333
968.889
969.889
971.000
969.333
967.667
966.000
965.667
967.333
968.000
968.000
968.444
969.000
967.333
965.889
965.333
964.333
962.667
963.333
965.556
966.000
966.000
967.667
969.111
969.667
968.889
966.111
963.667
961.444
961.444
962.000
963.111
964.111
964.667
965.222
965.778
965.333
964.222
962.667
961.000
962.111
963.111
963.667
964.444
965.556
964.667
962.444
961.556
961.000
959.333
958.444
960.667
962.222
962.778
963.667
964.778
965.000
965.000
963.889
962.556
960.333
959.444
960.556
961.000
961.000
961.444
962.000
963.111
963.667
962.000
960.111
957.889
957.667
958.778
959.000
959.000
960.111
961.111
961.667
961.556
960.444
959.000
957.333
957.889
959.000
960.667
962.111
962.667
963.000
963.000
962.000
960.333
959.556
959.000
960.111
961.111
961.667
962.444
963.556
963.000
961.333
960.111
959.000
959.556
960.000
960.000
960.000
960.000
960.667
961.778
962.000
962.000
962.000
961.889
961.333
961.444
962.556
964.333
966.556
966.111
965.000
963.889
962.889
962.333
961.778
961.222
962.000
963.667
962.667
961.000
962.111
963.000
963.000
962.111
959.889
959.000
959.000
959.889
961.000
962.667
964.111
964.667
964.333
962.667
961.667
961.111
960.556
960.000
960.556
961.111
961.667
962.667
964.333
965.667
966.778
968.333
970.000
972.222
974.111
974.667
975.667
977.333
978.667
979.778
979.556
979.000
977.889
977.111
977.667
978.444
979.556
981.000
982.667
984.333
986.000
986.000
986.000
986.000
985.333
983.667
983.000
983.000
983.000
983.000
982.444
981.889
981.333
980.556
979.444
978.667
978.111
978.444
979.000
979.556
980.000
980.000
979.111
976.889
976.000
976.000
976.889
978.000
980.778
983.222
984.333
985.000
985.000
983.333
980.556
977.778
975.000
971.667
969.333
971.000
971.333
969.667
968.333
967.222
965.667
964.000
964.000
963.778
962.667
962.000
962.000
961.333
960.222
960.000
960.000
959.444
958.778
957.667
956.556
955.444
955.667
956.778
957.000
957.000
957.556
957.889
957.333
956.556
955.444
954.000
952.333
953.333
955.000
956.111
956.778
955.667
955.000
955.000
954.333
953.222
952.556
952.000
952.556
953.333
955.000
956.000
956.000
955.333
954.222
954.000
954.000
953.444
953.000
953.000
953.000
953.000
952.000
950.333
945.111
939.000
934.556
930.667
929.000
927.111
924.889
922.000
918.667
917.556
917.000
922.556
929.000
939.000
951.222
966.778
983.667
1001.444
1021.889
1043.000
1071.333
1100.222
1131.333
1159.556
1183.444
1200.333
1212.556
1216.778
1219.000
1202.333
1181.333
1143.000
1101.111
1053.889
1013.333
977.222
953.556
933.000
929.667
928.000
933.000
937.556
941.444
945.000
948.333
949.000
949.000
947.333
946.222
947.333
948.889
951.111
952.333
952.889
953.889
955.000
952.778
950.778
949.667
949.222
949.778
950.000
950.000
951.333
953.000
951.333
949.889
949.333
948.778
948.222
947.667
947.111
947.444
948.000
948.000
948.000
948.000
947.778
947.222
946.333
945.222
945.000
945.000
945.556
946.111
946.667
947.222
947.778
948.000
948.000
946.667
945.000
945.556
946.222
947.333
948.444
949.556
949.667
949.111
948.111
947.000
947.556
948.111
948.667
949.444
950.556
951.333
951.889
951.556
951.000
951.000
950.556
948.333
947.667
949.333
950.333
950.889
951.889
953.000
949.667
946.778
945.667
945.000
945.000
945.667
946.778
948.333
950.000
948.889
948.222
949.333
949.778
949.222
948.000
946.333
946.444
947.000
947.556
948.222
949.333
950.000
950.000
949.000
947.333
947.000
947.000
947.556
947.889
947.333
947.667
949.333
949.667
949.111
949.000
949.000
948.444
948.000
948.000
949.111
951.889
952.667
952.111
951.556
951.000
950.444
949.778
948.667
948.444
949.556
949.667
949.111
950.333
952.000
950.889
949.778
948.667
947.778
947.222
947.667
948.778
949.000
949.000
949.556
950.000
950.000
949.333
947.667
946.000
944.333
944.444
945.000
946.111
946.778
945.667
945.667
947.333
946.667
944.444
944.000
944.000
944.000
944.222
945.333
946.000
946.000
946.333
946.889
945.667
944.000
944.000
944.333
946.000
947.222
947.778
948.000
948.000
947.556
947.000
947.000
946.556
944.333
943.444
944.556
946.000
947.667
948.889
950.000
950.000
949.778
948.667
948.667
950.333
951.667
952.778
954.778
957.000
958.111
959.111
959.667
960.000
960.000
959.333
958.222
959.333
961.000
962.667
964.111
964.667
965.444
966.556
966.333
965.222
965.444
966.000
966.556
967.333
969.000
970.444
971.556
971.667
971.111
970.111
969.000
968.444
968.111
968.667
969.222
969.778
970.000
970.000
970.889
972.000
970.889
969.778
968.667
967.778
967.222
967.667
968.778
969.889
971.000
970.444
969.667
968.000
967.000
967.000
967.000
967.000
967.889
969.000
968.444
968.111
968.667
968.556
967.444
966.333
965.222
965.000
965.000
966.111
967.111
967.667
968.444
969.556
969.000
967.333
967.889
969.000
967.333
966.111
966.667
967.222
967.778
967.333
966.222
965.111
964.000
962.889
962.000
962.000
962.000
962.000
962.667
963.778
964.000
964.000
962.333
960.778
959.667
959.444
960.556
961.667
962.778
962.556
962.000
962.000
961.889
961.333
960.333
958.667
958.333
958.889
959.444
960.000
960.000
960.111
960.667
960.556
959.444
958.667
958.111
957.556
957.000
958.111
959.111
959.667
960.000
960.000
960.333
960.889
960.556
960.000
961.111
962.000
962.000
962.444
963.556
963.667
963.111
961.667
960.000
957.778
956.111
956.667
957.222
957.778
958.667
959.778
959.111
958.000
958.000
957.889
957.333
956.778
956.222
956.333
956.889
957.889
959.000
957.333
955.889
955.333
955.222
955.778
956.000
956.000
957.333
959.000
957.333
956.111
956.667
956.778
956.222
955.333
954.222
954.889
956.000
957.111
958.000
958.000
958.222
958.778
958.333
957.222
956.556
956.000
956.556
957.444
959.667
961.000
961.000
961.333
961.889
961.111
960.000
958.889
958.222
959.333
960.667
962.333
962.667
962.111
962.444
963.000
964.111
964.444
961.667
960.667
962.333
964.000
965.667
966.444
967.000
967.000
967.000
967.000
967.000
967.000
968.333
970.556
972.333
974.000
974.000
974.000
974.000
974.000
974.000
974.000
974.000
974.000
974.000
976.222
978.333
980.000
980.556
979.444
979.000
979.000
978.556
978.000
978.000
978.111
978.667
979.444
980.556
981.000
981.000
979.667
978.000
975.778
974.222
975.333
976.444
977.556
978.000
978.000
977.111
976.000
974.889
973.889
973.333
974.556
978.444
981.333
983.556
984.000
984.000
981.222
978.111
973.667
969.889
967.111
966.000
966.000
965.111
964.000
962.889
961.667
960.000
958.556
957.444
956.667
956.111
955.111
954.000
955.111
956.000
956.000
955.778
955.222
956.000
957.667
956.222
954.000
954.556
955.000
955.000
955.222
955.778
955.333
954.222
953.556
953.000
953.000
953.000
953.000
953.444
954.556
955.333
955.889
956.000
956.000
954.333
952.889
952.333
952.000
952.000
952.333
952.889
953.889
955.000
955.000
954.667
953.000
951.556
950.444
949.667
949.111
949.444
950.000
948.889
947.111
942.667
938.000
933.000
929.667
927.444
924.333
921.000
917.667
914.333
911.000
910.333
913.667
921.333
931.889
945.111
959.000
973.444
988.333
1005.000
1024.333
1047.667
1074.333
1103.222
1129.444
1155.000
1172.222
1187.444
1194.667
1196.333
1189.667
1172.000
1147.000
1109.111
1068.000
1026.889
988.889
963.333
944.000
934.000
930.333
930.889
934.556
939.000
943.444
947.222
948.333
948.111
945.889
945.667
946.778
947.889
949.000
951.222
952.667
951.000
950.444
951.556
951.667
951.111
950.556
950.000
950.000
950.222
951.333
951.778
951.222
950.333
949.222
948.556
948.000
949.111
950.000
950.000
950.000
950.000
949.333
948.222
947.556
947.000
945.889
945.111
945.667
946.444
947.556
948.333
948.889
949.000
949.000
946.778
944.889
944.333
944.222
944.778
946.667
949.444
950.000
950.000
950.000
950.111
950.667
949.889
947.111
946.333
946.889
947.889
949.000
950.667
951.556
949.333
947.556
946.444
946.000
946.000
946.444
947.000
948.111
949.000
949.000
949.000
949.000
948.667
948.111
947.111
946.000
947.111
948.333
950.000
950.333
948.667
948.000
948.000
947.556
947.000
946.444
946.000
946.000
946.444
947.556
948.000
948.000
947.556
947.000
945.889
944.889
944.333
944.667
946.333
947.333
947.889
949.778
952.000
950.889
949.889
949.333
949.222
949.778
949.000
947.333
948.333
950.000
950.556
951.111
951.667
951.778
951.222
950.333
949.222
948.556
948.000
949.667
950.889
950.333
950.444
951.556
951.333
950.222
947.778
945.000
946.111
947.000
947.000
946.778
946.222
946.000
946.000
946.000
946.000
943.778
942.444
944.667
946.444
947.556
947.333
946.222
946.889
948.000
946.333
944.778
943.667
943.000
943.000
943.667
944.778
945.444
946.000
946.000
945.556
943.333
941.778
941.222
942.667
945.444
946.889
948.000
946.889
946.111
946.667
946.778
946.222
946.000
946.000
946.889
948.000
950.222
952.111
952.667
953.444
954.556
955.333
955.889
955.556
955.000
956.667
958.222
959.333
960.222
960.778
962.000
963.667
963.556
963.000
961.333
960.444
962.667
965.111
967.889
969.000
969.000
969.000
969.000
969.000
968.889
968.333
967.778
967.222
967.667
968.778
969.000
969.000
968.444
967.667
966.000
964.556
963.444
963.000
963.000
963.444
964.000
965.111
966.111
966.667
966.556
965.444
964.000
962.333
962.889
964.000
964.000
964.111
964.667
964.778
964.222
963.667
963.111
962.556
962.000
961.444
961.222
962.333
962.778
962.222
962.000
962.000
961.556
961.000
960.444
960.333
962.000
963.667
965.333
966.333
966.889
966.111
965.000
964.444
963.667
962.000
961.222
961.778
961.667
961.111
960.556
960.000
960.000
959.778
958.667
957.556
956.444
957.333
959.556
960.889
962.000
960.889
960.000
960.000
959.556
958.444
957.000
955.333
955.444
956.000
957.111
958.000
958.000
958.444
959.556
959.333
958.222
958.444
959.000
959.000
959.111
959.667
960.222
960.778
960.667
960.111
959.111
958.000
956.333
955.556
958.333
960.222
960.778
961.000
961.000
960.556
960.000
959.444
958.778
957.667
956.778
956.222
956.667
957.778
958.444
959.000
960.111
960.556
958.333
956.556
955.444
955.333
955.889
957.333
959.000
959.556
959.778
958.667
957.333
955.667
955.333
955.889
956.889
958.000
956.889
956.333
958.000
959.444
960.556
961.333
961.889
960.667
959.000
960.111
960.667
959.000
958.667
960.333
960.667
960.111
959.556
959.000
958.444
958.000
958.000
958.667
960.333
961.333
961.889
962.444
963.000
962.444
962.000
962.000
962.444
963.556
965.000
966.667
967.889
969.000
969.556
970.000
970.000
969.556
968.444
969.000
970.667
971.889
973.000
973.556
974.111
974.667
974.778
974.222
974.333
974.889
976.778
979.000
980.111
980.889
980.333
980.000
980.000
979.333
978.222
977.556
977.000
976.444
976.000
976.000
976.444
977.556
978.333
978.889
977.667
976.000
972.667
970.444
972.667
973.778
973.222
974.333
976.556
977.889
979.000
980.111
980.444
977.667
975.111
972.889
971.000
969.333
968.111
967.000
963.667
960.889
960.333
958.889
956.111
954.667
954.111
954.000
954.000
952.889
951.889
951.333
951.444
952.556
952.667
952.111
952.000
952.000
952.000
952.222
953.333
954.222
954.778
954.333
953.222
951.222
949.000
950.111
951.333
953.000
954.222
954.778
955.333
955.889
956.444
957.000
954.778
952.778
951.667
951.667
953.333
954.333
954.889
955.000
955.000
953.889
952.667
951.000
950.000
950.000
950.333
950.889
951.444
952.000
949.222
946.333
943.000
939.222
934.778
932.333
931.222
931.444
932.000
930.333
928.556
926.333
922.333
915.667
911.000
907.667
910.111
914.000
924.000
934.556
947.333
961.222
976.778
994.000
1012.333
1036.444
1062.000
1091.444
1120.000
1145.000
1167.111
1184.889
1194.667
1199.111
1186.222
1169.000
1132.889
1095.111
1050.667
1011.556
980.444
957.667
940.444
930.333
922.000
924.778
927.556
930.333
933.333
936.667
939.667
942.444
942.556
942.000
942.000
941.889
941.333
941.444
942.556
942.333
941.222
942.778
945.000
945.556
945.889
945.333
944.556
943.444
942.667
942.111
942.000
942.000
943.667
945.111
945.667
945.556
944.444
944.000
944.000
944.444
945.000
944.444
944.333
946.000
947.000
947.000
946.333
945.222
943.667
942.000
940.889
940.222
941.333
942.444
943.556
944.667
945.778
944.222
942.000
941.444
940.778
939.667
939.000
939.000
940.333
942.556
943.444
944.000
941.222
939.222
940.333
941.000
941.000
941.333
941.889
942.444
943.000
943.556
943.778
942.667
942.222
942.778
942.333
941.222
941.444
942.000
943.111
944.111
944.667
944.778
944.222
943.667
943.111
943.000
943.000
941.889
941.222
942.333
943.222
943.778
943.667
943.111
942.556
942.000
940.889
940.111
940.667
941.667
943.333
944.333
944.889
944.556
944.000
942.333
940.889
940.333
940.444
941.556
942.667
943.778
944.444
945.000
944.444
943.667
942.000
941.222
941.778
941.667
941.111
941.000
941.000
942.111
942.889
942.333
941.556
940.444
938.667
936.444
936.889
938.000
938.000
938.111
938.667
938.556
937.444
937.000
937.000
936.556
936.000
934.889
934.000
934.000
934.000
934.000
933.000
931.333
930.556
930.000
928.333
927.444
929.667
931.444
932.556
933.333
933.889
934.000
934.000
931.778
929.667
928.000
928.111
930.889
933.000
934.667
935.889
937.000
938.111
938.889
938.333
938.000
938.000
939.000
940.667
943.667
947.000
949.222
950.778
949.667
949.667
951.333
952.000
952.000
952.889
954.000
955.667
957.000
957.000
957.444
958.556
958.333
957.222
957.000
957.000
957.000
957.556
960.333
962.000
962.000
961.667
961.111
961.000
961.000
960.444
960.111
960.667
961.889
964.111
965.000
965.000
964.556
964.000
963.444
962.444
959.667
958.222
958.778
959.667
960.778
960.111
959.000
959.556
959.778
958.667
957.778
957.222
957.000
957.000
957.444
958.000
960.778
962.556
960.333
959.000
959.000
959.000
959.000
959.000
959.000
960.667
962.111
962.667
962.556
961.444
960.333
959.222
958.556
958.000
958.556
959.000
959.000
958.333
956.667
956.000
956.000
956.000
956.000
955.444
955.111
955.667
956.667
958.333
958.667
958.111
958.889
960.000
959.444
958.667
957.000
956.000
956.000
956.333
956.889
956.556
956.000
954.889
953.889
953.333
952.778
952.222
952.667
953.778
954.444
955.000
955.000
954.667
953.000
952.222
952.778
952.000
950.333
950.444
951.000
952.667
953.778
952.667
952.444
953.556
953.333
952.222
951.111
950.000
951.111
952.111
952.667
953.444
954.556
955.000
955.000
954.556
954.000
954.000
954.111
954.667
955.444
956.556
957.333
957.889
957.111
956.000
955.444
954.889
954.333
954.222
954.778
955.000
955.000
955.444
956.000
956.000
955.889
955.333
954.333
952.667
952.667
953.778
954.444
955.000
956.111
956.778
955.667
955.000
955.000
954.333
953.222
953.889
955.000
956.111
957.222
958.333
959.222
959.778
961.000
962.667
963.000
963.000
963.556
964.333
966.000
967.222
967.778
969.000
970.667
970.111
969.000
969.556
970.556
973.333
975.222
975.778
976.667
977.778
977.556
977.000
977.556
977.667
976.000
975.000
975.000
975.333
975.889
975.111
974.000
973.444
973.000
973.000
972.333
970.667
970.333
970.889
971.000
971.000
971.000
971.222
972.333
973.222
973.778
975.000
976.667
977.444
978.000
975.778
973.778
972.667
971.111
968.889
966.333
963.556
959.889
956.000
957.111
957.889
957.333
957.222
957.778
957.000
955.333
954.556
954.000
952.889
952.000
952.000
952.000
952.000
951.667
951.111
951.000
951.000
952.111
952.778
951.667
951.222
951.778
952.000
952.000
952.000
952.000
952.556
952.556
950.333
949.000
949.000
949.667
950.778
951.444
952.000
950.889
950.222
951.333
951.111
948.889
947.333
946.222
946.444
947.000
947.000
947.444
949.667
950.556
949.444
949.000
949.000
946.778
944.000
944.556
944.222
940.333
936.667
933.333
930.667
928.444
925.333
922.000
915.333
909.667
908.000
910.111
917.889
929.667
944.111
959.889
976.000
993.222
1011.667
1035.000
1061.444
1092.556
1123.000
1153.000
1175.889
1197.000
1204.778
1208.889
1198.333
1179.333
1147.667
1107.333
1061.222
1021.778
984.000
961.222
941.222
932.333
927.000
927.000
929.333
933.222
939.778
947.000
947.000
947.000
947.000
946.778
946.222
946.333
946.889
946.111
945.000
945.556
946.111
946.667
947.000
947.000
946.667
946.111
945.556
945.000
945.556
946.000
946.000
945.778
945.222
946.000
947.667
947.556
947.000
946.444
945.667
944.000
943.222
943.778
944.333
944.889
945.444
946.000
946.000
946.000
946.000
945.333
943.667
945.000
948.333
947.667
946.000
947.111
947.778
946.667
946.222
946.778
946.667
946.111
946.444
947.000
948.667
950.111
950.667
951.000
951.000
950.000
948.333
947.111
946.000
946.000
946.111
946.667
947.444
948.556
948.667
948.111
947.111
946.000
946.000
945.889
945.333
945.889
948.111
948.333
947.222
947.000
947.000
945.333
944.222
945.333
946.222
946.778
947.000
947.000
947.889
949.000
948.444
947.667
946.000
944.556
943.444
944.333
946.556
947.444
948.000
948.556
948.889
948.333
948.000
948.000
947.333
946.222
946.000
946.000
947.111
948.556
951.333
953.000
953.000
952.000
950.333
948.667
947.000
948.111
948.778
947.667
947.444
948.556
948.000
946.333
946.000
946.000
944.889
944.000
944.000
944.667
946.333
946.667
946.111
946.000
946.000
944.333
942.778
941.667
941.444
942.556
943.000
943.000
943.000
943.000
942.444
941.667
940.000
938.778
938.222
938.667
939.778
941.333
943.000
942.444
942.000
942.000
942.000
942.000
942.000
942.000
942.889
944.000
945.667
947.333
949.000
949.778
949.222
950.000
951.667
951.556
951.000
952.111
953.444
955.667
957.889
960.111
961.000
961.000
961.444
962.000
961.444
961.444
963.667
965.222
965.778
967.333
969.556
968.667
967.000
966.444
966.000
966.000
966.444
967.556
968.333
968.889
970.778
973.000
971.333
969.889
969.333
969.000
969.000
968.667
968.111
970.222
973.000
974.111
974.667
973.000
972.222
972.778
972.333
971.222
971.444
972.000
972.000
972.444
974.667
975.556
974.444
973.333
972.222
970.667
969.000
970.111
971.111
971.667
972.000
972.000
970.333
967.556
967.000
967.000
967.556
967.889
967.333
967.000
967.000
968.333
970.556
969.667
968.000
968.556
968.556
966.333
965.000
965.000
966.000
967.667
968.444
969.000
968.444
967.889
967.333
965.889
963.111
962.333
962.889
965.222
968.000
966.889
966.111
966.667
966.778
966.222
965.333
964.222
963.111
962.000
963.667
965.000
965.000
965.222
965.778
964.333
961.556
961.444
962.000
962.000
961.889
961.333
961.444
962.556
962.667
962.111
961.111
960.000
959.444
959.333
961.000
962.222
962.778
962.667
962.111
962.444
963.000
961.889
961.000
961.000
961.444
962.556
963.000
963.000
963.444
964.000
964.000
963.667
962.000
960.778
960.222
961.000
962.667
963.889
965.000
964.444
963.889
963.333
963.222
963.778
962.667
960.444
960.889
962.000
962.556
963.222
964.333
964.778
964.222
963.333
962.222
960.667
959.000
960.111
961.000
961.000
961.667
963.333
964.000
964.000
963.111
962.000
960.889
960.111
960.667
961.444
962.556
963.333
963.889
964.000
964.000
964.000
964.000
964.000
964.667
966.333
968.667
971.444
973.333
975.000
975.556
975.889
975.333
974.778
974.222
974.667
975.778
975.556
975.000
976.667
978.222
979.333
979.556
978.444
977.667
977.111
977.444
978.000
980.778
983.111
983.667
984.222
984.778
984.000
982.333
981.556
981.000
982.111
983.000
983.000
983.000
983.000
982.667
982.111
980.667
979.000
978.444
978.111
978.667
979.222
979.778
980.000
980.000
980.444
981.000
982.667
984.222
985.333
986.000
986.000
985.000
983.333
981.222
979.000
976.222
973.556
971.333
968.667
965.333
963.667
963.111
961.667
960.000
960.000
959.889
959.333
958.556
957.444
956.667
956.111
956.444
957.000
955.889
955.333
957.000
958.000
958.000
957.000
955.333
955.000
955.000
954.444
954.333
956.000
957.000
957.000
957.000
957.000
956.556
956.000
955.444
955.111
955.667
956.889
959.111
959.667
959.111
959.000
959.000
957.889
956.778
955.667
954.778
954.222
951.000
946.000
941.889
938.000
934.667
931.000
926.000
921.222
916.778
913.000
909.667
910.333
912.000
923.667
935.778
949.667
962.222
972.778
984.000
995.667
1009.556
1024.000
1041.778
1060.222
1081.333
1102.667
1124.333
1143.333
1160.556
1174.222
1187.000
1199.778
1212.333
1224.000
1231.667
1233.333
1225.333
1210.889
1176.889
1138.000
1087.444
1039.000
999.000
967.222
947.778
939.667
939.111
942.111
946.000
949.889
952.889
952.333
951.778
951.222
951.667
952.778
953.444
954.000
952.889
951.889
951.333
949.889
947.111
946.333
946.889
947.889
949.000
949.556
950.000
950.000
949.556
948.444
947.000
945.333
945.889
947.000
948.111
949.222
950.333
950.778
950.222
949.000
947.333
945.667
944.000
945.667
947.000
947.000
947.667
949.333
949.667
949.111
948.111
947.000
945.889
945.111
945.667
946.889
949.111
950.667
951.778
952.000
952.000
951.444
950.889
950.333
950.000
950.000
950.333
950.889
951.889
953.000
952.444
951.778
950.667
949.556
948.444
948.000
948.000
949.333
951.000
950.444
950.111
950.667
950.333
948.667
947.333
946.222
946.889
948.000
948.000
948.333
950.000
951.000
951.000
950.333
949.222
948.111
947.000
947.000
947.222
948.333
949.667
951.333
952.333
952.889
951.667
950.000
949.444
949.111
949.667
950.000
950.000
951.000
952.667
952.111
951.000
951.556
951.444
948.667
947.000
947.000
947.333
947.889
949.778
952.000
951.444
950.778
949.667
948.778
948.222
948.667
949.778
950.000
950.000
950.000
950.222
951.333
950.889
948.111
946.333
945.222
946.333
948.000
948.556
949.222
950.333
950.556
949.444
948.333
947.222
946.556
946.000
947.667
949.111
949.667
950.000
950.000
950.000
950.000
950.000
950.000
948.333
947.111
947.667
947.778
947.222
948.000
949.667
950.000
950.000
950.000
949.778
948.667
948.444
949.556
951.667
954.444
955.444
956.000
957.667
958.778
957.667
957.444
958.556
960.333
962.556
963.889
965.000
965.000
964.889
964.333
964.000
964.000
963.667
963.111
963.889
965.000
966.667
967.889
967.333
967.444
968.556
969.667
970.778
969.667
968.000
968.556
969.444
971.667
972.556
971.444
971.333
971.889
971.556
971.000
968.778
967.000
967.000
967.444
968.556
970.000
971.667
971.556
971.000
968.778
967.000
967.000
966.778
966.222
967.000
968.667
969.000
969.000
970.111
970.778
969.667
967.667
964.333
964.000
965.667
966.444
967.000
967.000
967.222
968.333
968.111
965.889
964.667
964.111
965.778
968.000
968.000
968.222
969.333
969.556
968.444
967.000
965.333
964.556
964.000
962.889
961.889
961.333
961.444
962.556
963.000
963.000
960.333
957.000
957.000
957.333
959.000
960.000
960.000
960.667
961.778
961.111
960.000
958.889
958.000
958.000
958.000
958.000
958.000
958.000
959.778
962.000
961.444
960.889
960.333
959.333
957.667
957.333
957.889
959.333
961.000
961.556
961.889
961.333
960.333
958.667
957.333
956.222
956.444
957.000
956.444
956.778
960.667
962.333
960.667
959.333
958.222
957.111
956.000
956.556
957.333
959.000
960.000
960.000
959.333
958.222
958.000
958.000
957.444
957.222
958.333
959.444
960.556
960.667
960.111
960.444
961.000
960.444
960.222
961.333
962.000
962.000
962.000
962.000
962.444
963.000
963.556
963.778
962.667
962.000
962.000
962.667
963.778
965.333
967.000
966.444
966.333
968.000
969.000
969.000
969.000
969.000
969.444
970.000
971.667
973.333
975.000
975.778
975.222
975.333
975.889
975.556
975.000
975.000
975.556
978.333
980.667
982.333
984.000
985.667
985.556
985.000
985.556
985.778
984.667
984.222
984.778
984.667
984.111
983.111
982.000
981.444
980.889
980.333
980.444
981.556
982.000
982.000
982.889
984.000
982.889
981.778
980.667
980.222
980.778
980.667
980.111
978.667
977.000
978.111
979.000
979.000
979.222
979.778
981.333
983.556
983.556
983.000
980.222
977.556
975.333
973.556
972.444
970.333
967.556
965.667
964.000
962.333
960.667
959.000
958.222
958.778
958.333
957.222
956.556
956.000
955.444
955.333
957.000
958.444
959.556
960.000
960.000
959.556
959.000
957.889
957.000
957.000
957.000
957.000
957.333
957.889
958.000
958.000
957.444
956.667
955.000
953.778
953.222
953.333
953.889
954.444
955.000
955.556
955.778
954.667
953.556
952.444
950.000
946.667
945.111
944.000
940.111
936.333
933.000
930.333
928.667
925.667
921.778
916.111
910.000
908.889
909.333
916.000
925.333
938.667
954.000
970.667
987.778
1005.000
1026.667
1050.556
1083.333
1114.778
1144.222
1167.333
1186.222
1194.444
1200.000
1186.667
1169.333
1136.000
1098.667
1055.333
1017.333
982.889
959.556
939.000
932.333
927.111
927.667
930.222
935.778
940.000
943.333
944.444
945.000
944.444
944.000
944.000
944.222
944.778
945.333
945.889
947.333
949.000
950.111
950.889
950.333
949.333
947.667
946.333
945.222
944.111
943.000
944.667
946.000
946.000
946.222
946.778
947.333
947.889
946.667
945.000
944.444
944.444
946.667
948.000
948.000
948.333
948.889
948.111
947.000
945.889
944.778
943.667
943.222
943.778
944.333
944.889
945.000
945.000
946.667
947.667
946.000
945.222
945.778
945.667
945.111
944.556
944.000
945.111
946.111
946.667
946.778
946.222
945.333
944.222
944.889
946.000
947.111
948.000
948.000
947.778
947.222
947.333
947.889
947.556
947.000
948.667
949.889
949.333
949.222
949.778
950.000
950.000
949.556
949.000
947.889
947.000
947.000
947.444
948.556
948.333
947.222
947.444
948.000
945.778
943.889
943.333
943.222
943.778
945.000
946.667
947.444
948.000
948.556
948.556
946.333
944.556
943.444
943.000
943.000
943.889
945.000
945.556
946.222
947.333
947.778
947.222
946.333
945.222
946.778
949.000
949.000
948.889
948.333
947.778
947.222
947.667
948.778
948.111
947.000
947.000
947.222
948.333
948.778
948.222
946.667
944.444
943.556
943.000
941.889
941.111
941.667
941.778
941.222
942.000
943.667
943.111
942.000
942.000
941.889
941.333
941.000
941.000
941.000
941.000
941.000
941.000
941.000
940.778
939.667
938.111
935.889
936.000
937.667
938.889
940.000
940.556
941.333
943.000
943.556
942.444
942.333
942.889
944.778
947.000
948.111
949.556
952.333
954.000
954.000
954.000
954.000
953.556
953.000
955.222
957.111
957.667
959.111
961.889
962.667
962.111
960.667
959.000
959.000
959.222
960.333
961.000
961.000
961.333
961.889
962.000
962.000
962.556
962.778
961.667
960.778
960.222
960.667
961.778
962.444
963.000
963.000
963.000
963.000
962.778
962.222
963.000
964.667
965.000
965.000
965.556
966.111
966.667
967.000
967.000
965.667
963.444
963.000
963.000
964.111
965.111
965.667
965.778
965.222
965.000
965.000
964.111
963.000
963.000
963.111
963.667
964.000
964.000
964.000
964.000
962.222
960.000
960.000
959.889
959.333
959.222
959.778
960.000
960.000
961.333
963.000
960.778
959.111
959.667
960.222
960.778
960.667
960.111
960.889
962.000
961.444
961.111
961.667
961.778
961.222
961.000
961.000
961.000
961.000
962.111
962.889
962.333
961.778
961.222
960.333
959.222
958.556
958.000
958.000
958.111
958.667
959.000
959.000
958.667
958.111
956.222
954.000
954.000
954.444
956.667
958.222
958.778
958.667
958.111
956.222
954.000
952.889
952.222
953.333
954.444
955.556
956.667
957.778
958.000
958.000
958.000
957.556
955.333
954.000
954.000
954.667
955.778
957.333
959.000
959.556
959.778
958.667
957.778
957.222
956.000
954.333
954.889
956.000
955.444
955.111
955.667
956.444
957.556
957.667
957.111
956.556
956.000
958.222
959.889
959.333
958.778
958.222
956.667
954.444
954.000
954.000
955.667
957.333
959.000
960.444
961.556
962.333
962.889
963.889
965.000
965.000
965.444
967.667
969.222
969.778
971.000
972.667
972.111
971.000
972.667
974.000
974.000
974.000
974.000
975.667
978.444
979.444
980.000
980.000
979.778
978.667
977.111
974.889
974.000
974.000
974.000
974.000
975.667
977.111
977.667
977.333
975.667
975.333
975.889
976.444
977.000
977.000
977.111
977.667
976.889
974.111
972.667
972.111
970.667
969.000
970.111
971.222
972.333
974.111
976.889
978.333
978.889
977.667
976.000
972.667
969.667
968.000
966.556
965.444
964.333
963.222
961.667
960.000
956.111
952.778
951.667
951.222
951.778
951.667
951.111
951.889
953.000
953.000
952.889
952.333
951.778
951.222
951.000
951.000
951.889
953.000
954.111
954.778
953.667
952.333
950.667
949.000
947.333
948.333
950.000
952.222
954.000
954.000
954.222
954.778
954.000
952.333
951.111
950.000
950.000
950.222
951.333
952.667
954.333
954.000
952.333
951.556
951.000
948.778
946.889
946.333
945.333
943.667
941.333
938.556
936.222
934.000
931.778
929.000
924.000
919.444
915.556
913.000
911.333
916.333
923.000
932.444
942.778
956.667
972.333
990.667
1012.000
1035.333
1064.889
1096.000
1124.889
1152.778
1176.667
1194.778
1204.222
1202.000
1192.000
1164.667
1133.000
1090.222
1048.444
1010.667
978.444
954.556
938.667
928.111
923.778
921.000
926.000
931.000
936.000
939.667
941.333
942.000
942.000
941.556
941.000
941.556
942.111
942.667
943.444
944.556
945.000
945.000
945.000
945.000
943.889
942.889
942.333
942.444
943.556
943.667
943.111
943.889
945.000
944.444
943.778
942.667
941.556
940.444
940.333
940.889
941.000
941.000
942.111
942.889
942.333
941.111
938.889
937.000
935.333
935.000
935.000
937.222
939.222
940.333
940.778
940.222
940.000
940.000
939.556
939.000
939.556
939.889
939.333
939.667
941.333
941.667
941.111
939.222
937.000
936.444
936.111
936.667
937.889
940.111
941.000
941.000
941.444
942.000
942.000
941.778
940.667
939.556
938.444
937.667
937.111
937.889
939.000
939.556
940.000
940.000
939.778
939.222
939.000
939.000
939.000
939.000
939.556
939.889
939.333
939.000
939.000
939.000
939.000
939.444
940.000
940.556
941.000
941.000
941.000
941.000
940.667
940.111
939.111
938.000
938.556
939.111
939.667
940.222
940.778
940.667
940.111
940.000
940.000
938.889
938.222
939.333
940.000
940.000
940.667
941.778
942.444
943.000
940.778
938.778
937.667
936.778
936.222
937.333
939.556
940.444
941.000
939.333
937.778
936.667
935.556
934.444
934.000
934.000
934.444
935.000
935.000
935.000
935.000
934.111
931.889
930.333
929.222
927.667
926.000
927.111
928.111
928.667
928.778
928.222
927.667
927.111
926.556
926.000
926.556
927.222
928.333
929.889
932.111
932.333
931.222
931.444
932.000
930.889
930.333
932.000
933.222
933.778
935.000
936.667
937.444
938.000
938.000
938.222
939.333
940.222
940.778
942.667
945.444
946.444
947.000
948.111
949.000
949.000
949.000
949.000
950.000
951.667
953.333
955.000
956.111
957.111
957.667
957.333
955.667
955.333
955.889
956.444
957.000
957.556
958.111
958.667
959.222
959.778
959.333
958.222
957.556
957.000
958.111
959.111
959.667
960.444
961.556
962.333
962.889
961.222
959.000
958.444
958.111
958.667
959.222
959.778
961.000
962.667
961.667
960.000
960.000
959.556
957.333
956.667
958.333
959.000
959.000
958.556
958.000
958.000
957.667
956.000
954.556
953.444
953.333
953.889
955.778
958.000
958.556
958.778
957.667
957.000
957.000
955.333
952.556
952.889
954.000
954.556
954.778
953.667
952.778
952.222
952.667
953.778
952.222
950.000
952.222
953.889
953.333
953.222
953.778
954.000
954.000
954.000
954.000
952.333
951.222
952.333
952.778
952.222
952.667
953.778
953.111
952.000
951.444
950.778
949.667
949.444
950.556
950.333
949.222
949.889
951.000
949.333
948.000
948.000
947.333
945.667
945.667
946.778
947.889
949.000
949.556
949.889
949.333
949.000
949.000
948.333
947.222
947.889
949.000
949.000
949.333
951.000
951.556
950.444
949.667
949.111
948.556
948.000
948.556
949.222
950.333
951.222
951.778
952.000
952.000
951.556
951.000
949.333
948.000
948.000
948.222
948.778
950.333
952.556
952.111
951.000
950.444
949.667
948.000
947.444
948.556
950.000
951.667
951.556
951.000
951.000
950.667
949.000
948.000
948.000
948.667
949.778
950.889
952.000
952.000
952.222
953.333
953.556
952.444
951.667
951.111
952.333
954.000
954.556
955.222
956.333
957.444
958.556
959.333
959.889
959.111
958.000
959.111
960.444
962.667
964.000
964.000
964.333
964.889
964.111
963.000
964.111
965.222
966.333
967.667
969.333
970.000
970.000
971.333
973.000
971.889
970.889
970.333
969.778
969.222
969.667
970.778
970.111
969.000
969.556
969.667
968.000
966.556
965.444
965.000
965.000
965.889
967.000
968.111
968.889
968.333
967.111
964.889
964.667
965.778
966.444
967.000
970.333
973.333
975.000
974.667
971.333
968.000
964.667
960.444
956.000
956.000
955.778
954.667
953.556
952.444
950.667
948.444
947.111
946.000
944.333
943.111
943.667
944.667
946.333
947.000
947.000
947.000
947.000
944.778
942.889
942.333
942.222
942.778
944.000
945.667
945.111
944.000
944.556
944.556
942.333
941.000
941.000
941.667
942.778
943.889
945.000
945.556
946.000
946.000
945.333
943.667
942.333
941.222
941.000
941.000
942.667
943.889
943.333
941.889
939.111
934.667
929.111
924.000
919.000
916.222
913.556
911.333
908.889
906.111
901.667
896.111
895.444
896.000
903.778
912.889
927.333
940.667
952.333
962.667
972.111
982.889
994.000
1009.000
1024.889
1044.333
1067.111
1094.889
1123.000
1151.333
1173.889
1195.000
1206.111
1214.000
1209.000
1194.222
1164.778
1124.333
1076.556
1030.556
985.000
957.222
932.889
922.333
917.333
920.667
923.667
926.444
931.444
937.000
935.889
935.111
935.667
936.000
936.000
936.000
936.000
935.111
934.000
933.444
933.000
933.000
933.222
933.778
933.667
933.111
932.556
932.000
930.889
930.111
930.667
931.667
933.333
934.667
935.778
935.111
934.000
934.556
934.667
933.000
932.000
932.000
933.333
935.556
935.556
935.000
935.000
934.889
934.333
933.778
933.222
933.333
933.889
933.556
933.000
935.222
936.556
934.333
933.222
933.778
933.667
933.111
933.000
933.000
934.111
935.111
935.667
936.222
936.778
937.000
937.000
935.667
934.000
934.556
935.333
937.000
937.556
936.444
935.333
934.222
934.000
934.000
933.444
932.889
932.333
932.889
935.111
936.333
936.889
