72,1739
72,1897
72,2051
72,2219
72,2390
72,2555
72,2721
72,2885
72,3043
72,3203
72,3362
72,3526
72,3699
72,3865
72,4021
72,4180
72,4334
72,4492
72,4654
72,4818
72,4983
72,5153
72,5313
72,5468
72,5628
72,5786
72,5957
72,6126
72,6291
72,6451
72,6618
72,6777
72,6935
72,7098
72,7268
72,7443
72,7608
72,7764
72,7924
72,8087
72,8248
72,8413
72,8579
72,8744
72,8907
72,9064
72,9220
72,9383
72,9550
72,9717
72,9883
72,10044
72,10200
72,10359
72,10516
72,10674
72,10844
72,11014
72,11178
72,11336
72,11492
72,11649
72,11813
72,11976
72,12145
72,12312
72,12474
72,12631
72,12785
72,12942
72,13103
72,13271
72,13436
72,13598
72,13755
72,13914
72,14072
72,14232
72,14396
72,14567
72,14733
72,14891
72,15047
72,15206
72,15371
72,15537
72,15702
72,15868
72,16033
72,16193
72,16348
72,16507
72,16669
72,16841
72,17011
72,17173
72,17332
72,17489
72,17648
72,17811
72,17976
72,18145
72,18316
72,18478
72,18631
72,18791
72,18951
72,19115
72,19282
72,19445
72,19611
72,19771
72,19927
72,20082
72,20245
72,20410
72,20582
72,20748
72,20906
72,21064
72,21224
72,21383
72,21547
72,21713
72,21880
72,22044
72,22199
72,22349
72,22508
72,22672
72,22836
72,23002
72,23166
72,23323
72,23472
72,23638
72,23795
72,23962
72,24133
72,24298
72,24458
72,24613
72,24771
72,24931
72,25090
72,25253
72,25422
72,25587
72,25742
72,25895
72,26052
72,26206
72,26371
72,26536
72,26696
72,26853
72,27010
72,27166
72,27318
72,27476
72,27638
72,27808
72,27971
72,28126
72,28280
72,28438
72,28595
72,28755
72,28918
72,29083
72,29244
72,29398
72,29553
72,29707
72,29869
72,30030
72,30195
72,30356
72,30510
72,30665
72,30820
72,30977
72,31133
72,31299
72,31463
72,31621
72,31771
72,31925
72,32082
72,32241
72,32403
72,32568
72,32733
72,32894
72,33048
72,33202
72,33362
72,33526
72,33693
72,33861
72,34021
72,34180
72,34340
72,34498
72,34656
72,34822
72,34991
72,35159
72,35318
72,35469
72,35628
72,35789
72,35953
72,36116
72,36281
72,36442
72,36602
72,36757
72,36911
72,37076
72,37180
72,37368
72,37537
72,37701
72,37856
72,38019
72,38181
72,38344
72,38513
72,38687
72,38849
72,39003
72,39161
72,39319
72,39485
72,39652
72,39818
72,39988
72,40151
72,40305
72,40464
72,40628
72,40797
72,40969
72,41135
72,41293
72,41453
72,41611
72,41732
72,41925
72,42093
72,42259
72,42425
72,42582
72,42733
72,42892
72,43055
72,43221
72,43382
72,43546
72,43706
72,43865
72,44018
72,44177
72,44345
72,44514
72,44681
72,44842
72,45000
72,45158
72,45318
72,45479
72,45647
72,45816
72,45983
72,46144
72,46301
72,46458
72,46626
72,46797
72,46967
72,47134
72,47301
72,47464
72,47618
72,47779
72,47946
72,48117
72,48285
72,48451
72,48609
72,48769
72,48930
72,49092
72,49258
72,49426
72,49593
72,49752
72,49909
72,50067
72,50232
72,50401
72,50565
72,50734
72,50896
72,51052
72,51210
72,51372
72,51536
72,51710
72,51877
72,52037
72,52197
72,52353
72,52515
72,52680
72,52849
72,53017
72,53188
72,53348
72,53502
72,53657
72,53822
72,53990
72,54156
72,54321
72,54483
72,54645
72,54801
72,54957
72,55120
72,55286
72,55396
72,55590
72,55750
72,55905
72,56063
72,56222
72,56385
72,56548
72,56708
72,56871
72,57028
72,57181
72,57337
72,57502
72,57668
72,57831
72,57996
72,58154
72,58313
72,58473
72,58633
72,58800
72,58971
72,59137
72,59296
72,59453
72,59607
72,59770
72,59935
72,60099
72,60264
72,60431
72,60588
72,60740
72,60899
72,61058
72,61227
72,61393
72,61558
72,61719
72,61876
72,62031
72,62190
72,62356
72,62521
72,62690
72,62851
72,63007
72,63164
72,63323
72,63486
72,63645
72,63805
72,63963
72,64118
72,64267
72,64415
72,64564
72,64723
72,64881
72,65039
72,65192
72,65348
72,65499
72,65653
72,65809
72,65967
72,66137
72,66306
72,66468
72,66624
72,66783
72,66949
72,67116
72,67291
72,67463
72,67632
72,67790
72,67946
72,68107
72,68268
72,68435
72,68607
72,68776
72,68927
72,69085
72,69246
72,69393
72,69552
72,69715
72,69878
72,70033
72,70187
72,70338
72,70488
72,70643
72,70804
72,70964
72,71125
72,71232
72,71420
72,71573
72,71717
72,71868
72,72029
72,72183
72,72327
72,72473
72,72611
72,72750
72,72892
72,73033
72,73176
72,73325
72,73475
72,73618
72,73757
72,73898
72,74037
72,74180
72,74332
72,74481
72,74628
72,74776
72,74928
72,75068
72,75209
72,75354
72,75508
72,75663
72,75824
72,75979
72,76129
72,76280
72,76435
72,76589
72,76745
72,76909
72,77073
72,77233
72,77387
72,77541
72,77695
72,77856
72,78020
72,78184
72,78341
72,78492
72,78642
72,78787
72,78931
72,79078
72,79229
72,79377
72,79524
72,79666
72,79805
72,79943
72,80088
72,80233
72,80383
72,80536
72,80691
72,80842
72,80989
72,81131
72,81279
72,81432
72,81594
72,81747
72,81902
72,82054
72,82203
72,82350
72,82498
72,82650
72,82805
72,82965
72,83123
72,83278
72,83423
72,83575
72,83727
72,83879
72,84031
72,84189
72,84351
72,84504
72,84650
72,84802
72,84952
72,85111
72,85276
72,85431
72,85586
72,85737
72,85891
72,86041
72,86190
72,86347
72,86511
72,86666
72,86814
72,86960
72,87100
72,87243
72,87389
72,87535
72,87682
72,87829
72,87981
72,88123
72,88257
72,88393
72,88532
72,88673
72,88817
72,88964
72,89107
72,89244
72,89382
72,89521
72,89659
72,89795
72,89943
72,90093
72,90245
72,90392
72,90538
72,90681
72,90831
72,90979
72,91129
72,91286
72,91441
72,91591
72,91736
72,91877
72,92017
72,92161
72,92314
72,92463
72,92613
72,92764
72,92913
72,93057
72,93208
72,93358
72,93513
72,93676
72,93843
72,94004
72,94157
72,94312
72,94467
72,94630
72,94793
72,94917
72,95115
72,95280
72,95436
72,95585
72,95740
72,95897
72,96061
72,96222
72,96380
72,96534
72,96689
72,96838
72,96992
72,97150
72,97309
72,97475
72,97634
72,97783
72,97932
72,98089
72,98240
72,98393
72,98545
72,98697
72,98849
72,98996
72,99138
72,99283
72,99430
72,99583
72,99734
72,99886
72,100033
72,100175
72,100320
72,100465
72,100609
72,100761
72,100920
72,101079
72,101232
72,101381
72,101532
72,101683
72,101841
72,102004
72,102173
72,102335
72,102496
72,102656
72,102814
72,102970
72,103135
72,103312
72,103483
72,103644
72,103805
72,103965
72,104124
72,104283
72,104447
72,104618
72,104785
72,104942
72,105098
72,105257
72,105421
72,105590
72,105756
72,105923
72,106085
72,106247
72,106404
72,106559
72,106728
72,106896
72,107060
72,107221
72,107377
72,107531
72,107687
72,107848
72,108008
72,108171
72,108334
72,108493
72,108644
72,108798
72,108951
72,109112
72,109273
72,109433
72,109591
72,109748
72,109898
72,110046
72,110198
72,110353
72,110513
72,110672
72,110825
72,110973
72,111126
72,111275
72,111426
72,111581
72,111737
72,111891
72,112043
72,112188
72,112333
72,112484
72,112637
72,112794
72,112953
72,113112
72,113263
72,113419
72,113573
72,113726
72,113881
72,114051
72,114217
72,114372
72,114527
72,114678
72,114833
72,114987
72,115146
72,115308
72,115476
72,115632
72,115783
72,115934
72,116086
72,116240
72,116403
72,116566
72,116725
72,116882
72,117037
72,117190
72,117343
72,117498
72,117659
72,117824
72,117978
72,118131
72,118284
72,118439
72,118588
72,118744
72,118905
72,119063
72,119221
72,119372
72,119522
72,119674
72,119831
72,119990
72,120152
72,120313
72,120468
72,120623
72,120778
72,120933
72,121087
72,121253
72,121417
72,121575
72,121725
72,121877
72,122034
72,122192
72,122351
72,122513
72,122680
72,122838
72,122992
72,123145
72,123298
72,123452
72,123616
72,123777
72,123935
72,124089
72,124246
72,124398
72,124544
72,124700
72,124863
72,125026
72,125182
72,125336
72,125487
72,125642
72,125793
72,125948
72,126109
72,126265
72,126422
72,126576
72,126728
72,126873
72,127028
72,127189
72,127348
72,127505
72,127662
72,127816
72,127970
72,128121
72,128274
72,128439
72,128605
72,128762
72,128914
72,129068
72,129218
72,129369
72,129527
72,129686
72,129845
72,130004
72,130158
72,130304
72,130454
72,130607
72,130768
72,130932
72,131089
72,131246
72,131403
72,131554
72,131700
72,131855
72,132016
72,132176
72,132335
72,132487
72,132635
72,132787
72,132939
72,133093
72,133250
72,133405
72,133555
72,133707
72,133857
72,133998
72,134140
72,134289
72,134438
72,134581
72,134726
72,134869
72,135007
72,135147
72,135289
72,135431
72,135578
72,135735
72,135886
72,136034
72,136176
72,136322
72,136471
72,136624
72,136777
72,136936
72,137100
72,137259
72,137408
72,137556
72,137708
72,137861
72,138018
72,138178
72,138339
72,138495
72,138648
72,138799
72,138957
72,139114
72,139273
72,139441
72,139609
72,139763
72,139912
72,140071
72,140233
72,140398
72,140556
72,140718
72,140883
72,141041
72,141190
72,141341
72,141510
72,141680
72,141835
72,141992
72,142151
72,142311
72,142460
72,142614
72,142774
72,142939
72,143095
72,143246
72,143388
72,143533
72,143672
72,143817
72,143966
72,144118
72,144263
72,144413
72,144561
72,144704
72,144843
72,144991
72,145148
72,145305
72,145457
72,145611
72,145763
72,145916
72,146067
72,146219
72,146379
72,146541
72,146702
72,146861
72,147018
72,147169
72,147330
72,147493
72,147658
72,147822
72,147984
72,148145
72,148304
72,148462
72,148616
72,148784
72,148951
72,149107
72,149265
72,149420
72,149575
72,149731
72,149890
72,150052
72,150216
72,150379
72,150530
72,150681
72,150835
72,150994
72,151158
72,151320
72,151481
72,151650
72,151808
72,151959
72,152115
72,152278
72,152442
72,152607
72,152769
72,152924
72,153075
72,153224
72,153378
72,153538
72,153694
72,153854
72,154020
72,154178
72,154323
72,154475
72,154636
72,154806
72,154970
72,155128
72,155286
72,155394
72,155583
72,155745
72,155913
72,156082
72,156246
72,156408
72,156563
72,156715
72,156869
72,157025
72,157185
72,157349
72,157512
72,157669
72,157820
72,157971
72,158124
72,158283
72,158447
72,158608
72,158769
72,158927
72,159079
72,159232
72,159387
72,159547
72,159714
72,159883
72,160043
72,160198
72,160355
72,160514
72,160671
72,160836
72,161000
72,161168
72,161328
72,161483
72,161636
72,161802
72,161966
72,162127
72,162290
72,162452
72,162610
72,162765
72,162920
72,163080
72,163247
72,163413
72,163571
72,163730
72,163883
72,164041
72,164197
72,164361
72,164525
72,164695
72,164858
72,165012
72,165168
72,165324
72,165484
72,165647
72,165815
72,165978
72,166140
72,166299
72,166453
72,166605
72,166769
72,166940
72,167108
72,167262
72,167412
72,167571
72,167731
72,167887
72,168044
72,168209
72,168378
72,168540
72,168686
72,168836
72,168999
72,169163
72,169317
72,169475
72,169635
72,169796
72,169910
72,170093
72,170261
72,170430
72,170598
72,170759
72,170914
72,171043
72,171220
72,171378
72,171532
72,171691
72,171861
72,172027
72,172173
72,172325
72,172481
72,172643
72,172803
72,172962
72,173122
72,173286
72,173441
72,173589
72,173743
72,173866
72,174070
72,174245
72,174411
72,174568
72,174725
72,174887
72,175047
72,175210
72,175374
72,175542
72,175705
72,175860
72,176014
72,176174
72,176332
72,176496
72,176621
72,176821
72,176983
72,177145
72,177302
72,177420
72,177622
72,177798
72,177967
72,178126
72,178288
72,178447
72,178613
72,178776
72,178944
72,179115
72,179280
72,179438
72,179594
72,179754
72,179923
72,180098
72,180263
72,180429
72,180590
72,180749
72,180904
72,181064
72,181234
72,181405
72,181573
72,181733
72,181893
72,182054
72,182217
72,182379
72,182547
72,182714
72,182883
72,183040
72,183195
72,183358
72,183527
72,183698
72,183862
72,184031
72,184191
72,184354
72,184512
72,184673
72,184844
72,185016
72,185185
72,185340
72,185500
72,185660
72,185823
72,185986
72,186153
72,186323
72,186486
72,186642
72,186796
72,186954
72,187118
72,187285
72,187452
72,187613
72,187775
72,187933
72,188091
72,188252
72,188421
72,188589
72,188760
72,188921
72,189076
72,189236
72,189396
72,189559
72,189728
72,189898
72,190059
72,190221
72,190377
72,190530
72,190693
72,190857
72,191021
72,191182
72,191340
72,191494
72,191653
72,191812
72,191971
72,192142
72,192306
72,192467
72,192628
72,192743
72,192933
72,193103
72,193273
72,193442
72,193611
72,193772
72,193926
72,194084
72,194242
72,194409
72,194580
72,194745
72,194902
72,195062
72,195221
72,195340
72,195530
72,195693
72,195860
72,196024
72,196177
72,196328
72,196489
72,196647
72,196812
72,196977
72,197139
72,197304
72,197464
72,197618
72,197773
72,197943
72,198108
72,198272
72,198432
72,198589
72,198746
72,198907
72,199066
72,199230
72,199400
72,199566
72,199720
72,199870
72,200020
72,200175
72,200335
72,200498
72,200658
72,200820
72,200977
72,201126
72,201275
72,201435
72,201592
72,201755
72,201917
72,202077
72,202228
72,202383
72,202544
72,202702
72,202863
72,203035
72,203207
72,203359
72,203513
72,203674
72,203839
72,203998
72,204164
72,204337
72,204496
72,204655
72,204813
72,204976
72,205134
72,205301
72,205471
72,205635
72,205784
72,205938
72,206097
72,206258
72,206410
72,206575
72,206744
72,206907
72,207050
72,207204
72,207364
72,207533
72,207691
72,207851
72,208020
72,208182
72,208326
72,208476
72,208636
72,208804
72,208961
72,209122
72,209282
72,209441
72,209563
72,209743
72,209907
72,210076
72,210245
72,210411
72,210566
72,210718
72,210873
72,211035
72,211197
72,211358
72,211523
72,211683
72,211836
72,211992
72,212143
72,212304
72,212467
72,212634
72,212793
72,212953
72,213105
72,213264
72,213422
72,213583
72,213748
72,213915
72,214076
72,214233
72,214390
72,214546
72,214712
72,214878
72,215041
72,215207
72,215370
72,215524
72,215678
72,215836
72,216002
72,216173
72,216338
72,216498
72,216662
72,216823
72,216983
72,217146
72,217318
72,217487
72,217652
72,217809
72,217965
72,218125
72,218286
72,218450
72,218616
72,218781
72,218939
72,219098
72,219251
72,219407
72,219572
72,219741
72,219905
72,220067
72,220223
72,220381
72,220543
72,220703
72,220816
72,221020
72,221188
72,221348
72,221501
72,221658
72,221818
72,221982
72,222146
72,222308
72,222474
72,222629
72,222783
72,222942
72,223103
72,223272
72,223441
72,223607
72,223766
72,223927
72,224082
72,224245
72,224409
72,224574
72,224742
72,224905
72,225062
72,225215
72,225376
72,225538
72,225702
72,225865
72,226027
72,226188
72,226344
72,226496
72,226656
72,226824
72,226991
72,227154
72,227313
72,227470
72,227627
72,227785
72,227949
72,228116
72,228285
72,228447
72,228603
72,228758
72,228916
72,229077
72,229247
72,229416
72,229579
72,229741
72,229902
72,230054
72,230212
72,230374
72,230544
72,230708
72,230868
72,231020
72,231181
72,231338
72,231493
72,231657
72,231824
72,231987
72,232145
72,232299
72,232453
72,232616
72,232777
72,232938
72,233103
72,233265
72,233419
72,233575
72,233731
72,233892
72,234058
72,234226
72,234388
72,234515
72,234696
72,234853
72,234972
72,235165
72,235331
72,235500
72,235664
72,235817
72,235971
72,236126
72,236289
72,236457
72,236623
72,236784
72,236951
72,237107
72,237262
72,237421
72,237586
72,237755
72,237923
72,238081
72,238239
72,238402
72,238560
72,238717
72,238888
72,239054
72,239223
72,239382
72,239537
72,239693
72,239859
72,240023
72,240190
72,240356
72,240517
72,240674
72,240832
72,240989
72,241096
72,241302
72,241469
72,241635
72,241794
72,241946
72,242106
72,242268
72,242379
72,242580
72,242751
72,242917
72,243073
72,243230
72,243388
72,243556
72,243724
72,243888
72,244050
72,244214
72,244372
72,244531
72,244692
72,244863
72,245036
72,245202
72,245361
72,245526
72,245689
72,245855
72,245975
72,246181
72,246352
72,246521
72,246678
72,246838
72,247003
72,247132
72,247329
72,247497
72,247661
72,247822
72,247977
72,248133
72,248295
72,248464
72,248630
72,248793
72,248951
72,249109
72,249267
72,249426
72,249594
72,249763
72,249933
72,250094
72,250254
72,250411
72,250571
72,250736
72,250908
72,251077
72,251241
72,251401
72,251561
72,251717
72,251879
72,252043
72,252213
72,252381
72,252542
72,252657
72,252850
72,253014
72,253178
72,253344
72,253512
72,253678
72,253835
72,253988
72,254147
72,254315
72,254483
72,254612
72,254809
72,254971
72,255131
72,255285
72,255442
72,255610
72,255782
72,255947
72,256104
72,256267
72,256425
72,256585
72,256748
72,256915
72,257085
72,257251
72,257405
72,257563
72,257721
72,257878
72,258052
72,258221
72,258384
72,258549
72,258706
72,258862
72,259021
72,259187
72,259355
72,259524
72,259689
72,259845
72,260006
72,260165
72,260328
72,260497
72,260665
72,260831
72,260996
72,261152
72,261313
72,261479
72,261649
72,261817
72,261987
72,262144
72,262306
72,262464
72,262623
72,262789
72,262963
72,263128
72,263291
72,263448
72,263608
72,263769
72,263931
72,264095
72,264267
72,264435
72,264594
72,264750
72,264910
72,265073
72,265245
72,265409
72,265572
72,265737
72,265896
72,266050
72,266207
72,266367
72,266536
72,266702
72,266861
72,267014
72,267173
72,267327
72,267485
72,267652
72,267818
72,267984
72,268143
72,268296
72,268446
72,268602
72,268759
72,268924
72,269085
72,269244
72,269399
72,269558
72,269714
72,269874
72,270040
72,270214
72,270383
72,270542
72,270701
72,270864
72,271028
72,271195
72,271363
72,271537
72,271702
72,271860
72,272016
72,272178
72,272346
72,272514
72,272682
72,272848
72,273010
72,273168
72,273323
72,273487
72,273654
72,273823
72,273988
72,274151
72,274308
72,274470
72,274629
72,274791
72,274957
72,275121
72,275279
72,275434
72,275587
72,275741
72,275906
72,276025
72,276226
72,276393
72,276554
72,276710
72,276868
72,277028
72,277191
72,277359
72,277527
72,277686
72,277844
72,278000
72,278156
72,278322
72,278487
72,278656
72,278821
72,278984
72,279138
72,279297
72,279457
72,279624
72,279794
72,279959
72,280118
72,280281
72,280437
72,280593
72,280756
72,280923
72,281090
72,281254
72,281405
72,281562
72,281723
72,281883
72,282047
72,282216
72,282384
72,282549
72,282709
72,282862
72,283028
72,283198
72,283364
72,283529
72,283696
72,283854
72,284013
72,284169
72,284328
72,284501
72,284672
72,284833
72,284991
72,285148
72,285309
72,285473
72,285637
72,285806
72,285978
72,286140
72,286293
72,286449
72,286608
72,286776
72,286947
72,287111
72,287279
72,287443
72,287603
72,287758
72,287922
72,288088
72,288259
72,288423
72,288578
72,288737
72,288897
72,289045
72,289220
72,289390
72,289508
72,289708
72,289867
72,290025
72,290189
72,290358
72,290527
72,290693
72,290860
72,291022
72,291184
72,291340
72,291505
72,291680
72,291850
72,292014
72,292174
72,292332
72,292493
72,292655
72,292818
72,292987
72,293156
72,293317
72,293472
72,293630
72,293790
72,293958
72,294125
72,294295
72,294460
72,294624
72,294780
72,294942
72,295105
72,295273
72,295445
72,295611
72,295772
72,295931
72,296089
72,296252
72,296416
72,296584
72,296748
72,296911
72,297069
72,297225
72,297385
72,297551
72,297722
72,297888
72,298054
72,298209
72,298368
72,298525
72,298688
72,298857
72,299026
72,299197
72,299356
72,299514
72,299673
72,299838
72,300003
72,300169
72,300336
72,300501
72,300658
72,300814
72,300972
72,301138
72,301310
72,301479
72,301643
72,301805
72,301967
72,302123
72,302286
72,302454
72,302624
72,302793
72,302952
72,303104
72,303263
72,303419
72,303577
72,303740
72,303850
72,303913
72,304073
72,304230
72,304384
72,304536
72,304703
72,304869
72,305032
72,305195
72,305352
72,305509
72,305668
72,305823
72,305984
72,306158
72,306325
72,306480
72,306637
72,306794
72,306954
72,307118
72,307282
72,307453
72,307623
72,307783
72,307937
72,308095
72,308253
72,308421
72,308587
72,308748
72,308915
72,309075
72,309232
72,309388
72,309549
72,309718
72,309888
72,310053
72,310206
72,310367
72,310525
72,310686
72,310849
72,311016
72,311183
72,311349
72,311504
72,311655
72,311819
72,311982
72,312147
72,312307
72,312467
72,312624
72,312747
72,312930
72,313086
72,313257
72,313423
72,313585
72,313741
72,313897
72,314053
72,314214
72,314374
72,314540
72,314662
72,314860
72,315017
72,315176
72,315285
72,315474
72,315643
72,315810
72,315976
72,316140
72,316298
72,316452
72,316608
72,316772
72,316943
72,317111
72,317272
72,317432
72,317595
72,317758
72,317919
72,318089
72,318257
72,318429
72,318589
72,318745
72,318903
72,319069
72,319201
72,319399
72,319571
72,319733
72,319895
72,320051
72,320211
72,320379
72,320553
72,320719
72,320882
72,321040
72,321198
72,321358
72,321518
72,321685
72,321854
72,321989
72,322180
72,322337
72,322494
72,322655
72,322823
72,322988
72,323153
72,323315
72,323473
72,323627
72,323779
72,323920
72,324095
72,324262
72,324419
72,324572
72,324721
72,324871
72,325020
72,325172
72,325328
72,325481
72,325635
72,325782
72,325921
72,326057
72,326201
72,326349
72,326502
72,326652
72,326803
72,326949
72,327098
72,327243
72,327394
72,327548
72,327711
72,327874
72,328027
72,328178
72,328331
72,328487
72,328639
72,328799
72,328962
72,329123
72,329280
72,329437
72,329556
72,329733
72,329898
72,330068
72,330229
72,330388
72,330549
72,330699
72,330852
72,331012
72,331180
72,331339
72,331509
72,331673
72,331816
72,331963
72,332113
72,332254
72,332401
72,332551
72,332692
72,332834
72,332975
72,333112
72,333242
72,333380
72,333526
72,333675
72,333817
72,333968
72,334114
72,334261
72,334406
72,334554
72,334701
72,334857
72,335014
72,335173
72,335326
72,335474
72,335623
72,335783
72,335942
72,336098
72,336267
72,336439
72,336594
72,336744
72,336903
72,337067
72,337229
72,337393
72,337560
72,337722
72,337875
72,338023
72,338171
72,338326
72,338481
72,338643
72,338805
72,338957
72,339108
72,339265
72,339420
72,339578
72,339740
72,339904
72,340066
72,340220
72,340373
72,340528
72,340689
72,340851
72,341014
72,341176
72,341329
72,341484
72,341638
72,341790
72,341946
72,342116
72,342278
72,342434
72,342588
72,342742
72,342899
72,343055
72,343215
72,343377
72,343545
72,343701
72,343853
72,344008
72,344163
72,344325
72,344491
72,344657
72,344818
72,344977
72,345130
72,345284
72,345440
72,345598
72,345766
72,345930
72,346086
72,346234
72,346388
72,346539
72,346694
72,346846
72,347008
72,347165
72,347322
72,347468
72,347617
72,347770
72,347928
72,348089
72,348248
72,348407
72,348563
72,348715
72,348866
72,349019
72,349180
72,349345
72,349507
72,349613
72,349793
72,349941
72,350089
72,350236
72,350386
72,350538
72,350690
72,350839
72,350983
72,351128
72,351271
72,351415
72,351567
72,351717
72,351868
72,352017
72,352167
72,352311
72,352453
72,352599
72,352755
72,352911
72,353070
72,353232
72,353388
72,353539
72,353696
72,353858
72,354021
72,354184
72,354353
72,354516
72,354675
72,354829
72,354988
72,355151
72,355322
72,355487
72,355651
72,355812
72,355971
72,356129
72,356284
72,356451
72,356616
72,356776
72,356928
72,357081
72,357233
72,357387
72,357540
72,357697
72,357854
72,358011
72,358156
72,358300
72,358442
72,358585
72,358730
72,358886
72,359036
72,359181
72,359328
72,359472
72,359611
72,359748
72,359891
72,360038
72,360187
72,360339
72,360480
72,360617
72,360758
72,360898
72,361037
72,361178
72,361231
72,361405
72,361580
72,361758
72,361945
72,362136
72,362316
72,362490
72,362664
72,362836
72,363019
72,363202
72,363385
72,363565
72,363746
72,363923
72,364097
72,364279
72,364462
72,364642
72,364812
72,364980
72,365154
72,365331
72,365511
72,365688
72,365859
72,366031
72,366200
72,366363
72,366535
72,366715
72,366897
72,367068
72,367236
72,367399
72,367557
72,367718
72,367879
72,368039
72,368197
72,368358
72,368509
72,368661
72,368818
72,368980
72,369148
72,369319
72,369476
72,369627
72,369782
72,369941
72,370103
72,370269
72,370439
72,370606
72,370769
72,370925
72,371082
72,371240
72,371405
72,371567
72,371728
72,371889
72,372051
72,372219
72,372392
72,372570
72,372752
72,372943
72,373128
72,373301
72,373480
72,373658
72,373842
72,374033
72,374217
72,374393
72,374569
72,374743
72,374919
72,375097
72,375282
72,375465
72,375634
72,375802
72,375984
72,376167
72,376353
72,376530
72,376704
72,376875
72,377051
72,377219
72,377383
72,377556
72,377731
72,377900
72,378067
72,378234
72,378399
72,378581
72,378760
72,378933
72,379110
72,379278
72,379444
72,379610
72,379778
72,379951
72,380126
72,380291
72,380451
72,380620
72,380791
72,380963
72,381137
72,381306
72,381479
72,381650
72,381819
72,381991
72,382171
72,382352
72,382536
72,382712
72,382884
72,383061
72,383236
72,383415
72,383597
72,383779
72,383950
72,384110
72,384264
72,384425
72,384588
72,384752
72,384915
72,385069
72,385224
72,385378
72,385529
72,385684
72,385846
72,386006
72,386173
72,386336
72,386494
72,386652
72,386817
72,386985
72,387158
72,387330
72,387497
72,387660
72,387821
72,387979
72,388139
72,388309
72,388477
72,388643
72,388796
72,388950
72,389101
72,389256
72,389417
72,389582
72,389742
72,389900
72,390055
72,390207
72,390359
72,390515
72,390678
72,390841
72,391000
72,391156
72,391309
72,391473
72,391638
72,391800
72,391966
72,392135
72,392302
72,392467
72,392634
72,392807
72,392992
72,393181
72,393367
72,393544
72,393708
72,393877
72,394055
72,394235
72,394419
72,394605
72,394784
72,394954
72,395123
72,395293
72,395479
72,395663
72,395829
72,396003
72,396182
72,396537
72,396723
72,396904
72,397089
72,397257
72,397432
72,397616
72,397800
72,397976
72,398165
72,398346
72,398518
72,398691
72,398870
72,399054
72,399244
72,399424
72,399594
72,399766
72,399939
72,400120
72,400306
72,400492
72,400678
72,400852
72,401024
72,401197
72,401379
72,401563
72,401742
72,401911
72,402074
72,402248
72,402424
72,402605
72,402794
72,402970
72,403150
72,403326
72,403500
72,403682
72,403869
72,404053
72,404240
72,404423
72,404600
72,404782
72,404971
72,405162
72,405361
72,405548
72,405719
72,405888
72,406060
72,406245
72,406437
72,406624
72,406804
72,406987
72,407170
72,407356
72,407537
72,407728
72,407917
72,408089
72,408260
72,408448
72,408640
72,408825
72,409001
72,409169
72,409343
72,409515
72,409689
72,409883
72,410074
72,410262
72,410445
72,410629
72,410821
72,411018
72,411218
72,411407
72,411594
72,411779
72,411961
72,412154
72,412348
72,412545
72,412736
72,412925
72,413114
72,413306
72,413495
72,413694
72,413890
72,414073
72,414256
72,414443
72,414645
72,414846
72,415041
72,415232
72,415414
72,415602
72,415791
72,415989
72,416192
72,416385
72,416570
72,416750
72,416941
72,417142
72,417344
72,417533
72,417725
72,417915
72,418105
72,418310
72,418517
72,418716
72,418897
72,419080
72,419268
72,419453
72,419629
72,419814
72,419993
72,420176
72,420355
72,420542
72,420745
72,420945
72,421139
72,421325
72,421504
72,421696
72,421893
72,422094
72,422295
72,422489
72,422680
72,422878
72,423080
72,423292
72,423500
72,423698
72,423897
72,424100
72,424305
72,424510
72,424716
72,424915
72,425108
72,425242
72,425487
72,425681
72,425873
72,426058
72,426240
72,426426
72,426619
72,426822
72,427026
72,427215
72,427394
72,427581
72,427767
72,427947
72,428131
72,428309
72,428489
72,428662
72,428829
72,429014
72,429210
72,429409
72,429599
72,429783
72,429976
72,430174
72,430372
72,430571
72,430759
72,430943
72,431124
72,431311
72,431514
72,431715
72,431907
72,432094
72,432278
72,432458
72,432647
72,432844
72,433048
72,433237
72,433412
72,433592
72,433768
72,433957
72,434141
72,434323
72,434495
72,434666
72,434839
72,435025
72,435226
72,435434
72,435639
72,435832
72,436030
72,436244
72,436352
72,436588
72,436789
72,436982
72,437177
72,437373
72,437579
72,437789
72,437981
72,438175
72,438372
72,438580
72,438791
72,438998
72,439204
72,439394
72,439589
72,439794
72,440004
72,440214
72,440412
72,440600
72,440800
72,441007
72,441219
72,441430
72,441634
72,441828
72,442023
72,442229
72,442435
72,442632
72,442830
72,443027
72,443224
72,443436
72,443649
72,443858
72,444055
72,444252
72,444452
72,444663
72,444879
72,445081
72,445278
72,445479
72,445681
72,445891
72,446108
72,446320
72,446518
72,446719
72,446932
72,447142
72,447353
72,447561
72,447762
72,447956
72,448161
72,448377
72,448587
72,448781
72,448978
72,449177
72,449383
72,449584
72,449790
72,450000
72,450194
72,450393
72,450602
72,450815
72,451028
72,451233
72,451438
72,451640
72,451854
72,452071
72,452281
72,452481
72,452681
72,452882
72,453097
72,453315
72,453520
72,453718
72,453918
72,454126
72,454326
72,454535
72,454734
72,454923
72,455104
72,455292
72,455499
72,455701
72,455897
72,456099
72,456292
72,456485
72,456687
72,456892
72,457099
72,457292
72,457480
72,457686
72,457900
72,458105
72,458315
72,458514
72,458710
72,458915
72,459122
72,459332
72,459537
72,459729
72,459906
72,460091
72,460290
72,460492
72,460702
72,460903
72,461094
72,461304
72,461517
72,461727
72,461931
72,462125
72,462320
72,462511
72,462704
72,462893
72,463089
72,463278
72,463465
72,463656
72,463856
72,464051
72,464238
72,464420
72,464605
72,464791
72,464989
72,465189
72,465391
72,465572
72,465745
72,465925
72,466108
72,466303
72,466498
72,466685
72,466872
72,467053
72,467231
72,467422
72,467619
72,467816
72,467998
72,468178
72,468363
72,468550
72,468744
72,468935
72,469121
72,469309
72,469493
72,469677
72,469873
72,470077
72,470277
72,470464
72,470655
72,470847
72,471038
72,471232
72,471426
72,471618
72,471806
72,471995
72,472191
72,472390
72,472588
72,472780
72,472971
72,473158
72,473349
72,473542
72,473740
72,473941
72,474135
72,474323
72,474517
72,474710
72,474901
72,475093
72,475277
72,475462
72,475656
72,475863
72,476066
72,476274
72,476474
72,476673
72,476872
72,477087
72,477305
72,477506
72,477711
72,477913
72,478115
72,478323
72,478541
72,478753
72,478950
72,479159
72,479367
72,479572
72,479775
72,479970
72,480159
72,480349
72,480545
72,480760
72,480944
72,481175
72,481372
72,481568
72,481762
72,481957
72,482140
72,482330
72,482513
72,482692
72,482889
72,483098
72,483307
72,483510
72,483713
72,483916
72,484119
72,484334
72,484539
72,484734
72,484924
72,485110
72,485306
72,485508
72,485705
72,485899
72,486089
72,486281
72,486472
72,486680
72,486889
72,487093
72,487294
72,487491
72,487688
72,487900
72,488111
72,488311
72,488514
72,488712
72,488908
72,489115
72,489330
72,489537
72,489726
72,489927
72,490133
72,490339
72,490548
72,490756
72,490959
72,491151
72,491357
72,491577
72,491787
72,491992
72,492192
72,492393
72,492598
72,492817
72,493034
72,493230
72,493422
72,493619
72,493815
72,494024
72,494231
72,494424
72,494617
72,494816
72,495021
72,495230
72,495443
72,495649
72,495843
72,496047
72,496263
72,496479
72,496687
72,496890
72,497095
72,497294
72,497505
72,497724
72,497930
72,498123
72,498321
72,498532
72,498740
72,498950
72,499158
72,499356
72,499544
72,499744
72,499954
72,500155
72,500356
72,500548
72,500742
72,500936
72,501140
72,501352
72,501552
72,501751
72,501948
72,502154
72,502365
72,502575
72,502781
72,502974
72,503177
72,503387
72,503598
72,503815
72,504023
72,504217
72,504420
72,504634
72,504844
72,505051
72,505255
72,505454
72,505642
72,505839
72,506047
72,506255
72,506451
72,506645
72,506844
72,507046
72,507253
72,507462
72,507655
72,507853
72,508050
72,508250
72,508462
72,508669
72,508862
72,509056
72,509260
72,509463
72,509669
72,509873
72,510073
72,510267
72,510460
72,510670
72,510881
72,511082
72,511280
72,511483
72,511678
72,511885
72,512098
72,512300
72,512497
72,512694
72,512895
72,513101
72,513309
72,513513
72,513706
72,513905
72,514108
72,514308
72,514520
72,514728
72,514921
72,515113
72,515315
72,515528
72,515730
72,515929
72,516133
72,516328
72,516521
72,516732
72,516948
72,517149
72,517346
72,517549
72,517753
72,517959
72,518172
72,518377
72,518572
72,518773
72,518975
72,519189
72,519395
72,519600
72,519797
72,519991
72,520198
72,520407
72,520611
72,520811
72,521008
72,521203
72,521404
72,521621
72,521824
72,522022
72,522224
72,522415
72,522615
72,522826
72,523029
72,523226
72,523422
72,523616
72,523819
72,524029
72,524238
72,524432
72,524627
72,524825
72,525023
72,525225
72,525429
72,525623
72,525816
72,526012
72,526225
72,526433
72,526634
72,526843
72,527040
72,527237
72,527445
72,527645
72,527846
72,528032
72,528207
72,528391
72,528575
72,528773
72,528977
72,529182
72,529377
72,529575
72,529781
72,529998
72,530207
72,530414
72,530617
72,530819
72,531022
72,531231
72,531447
72,531648
72,531846
72,532043
72,532245
72,532438
72,532651
72,532841
72,533033
72,533224
72,533424
72,533634
72,533844
72,534038
72,534229
72,534421
72,534615
72,534818
72,535022
72,535212
72,535404
72,535598
72,535789
72,535991
72,536178
72,536355
72,536525
72,536698
72,536871
72,537054
72,537242
72,537425
72,537621
72,537812
72,538007
72,538206
72,538418
72,538630
72,538830
72,539023
72,539223
72,539429
72,539641
72,539843
72,540046
72,540241
72,540435
72,540638
72,540848
72,541053
72,541248
72,541439
72,541639
72,541843
72,542045
72,542248
72,542440
72,542614
72,542788
72,542964
72,543161
72,543361
72,543556
72,543751
72,543948
72,544151
72,544364
72,544569
72,544777
72,544977
72,545184
72,545394
72,545604
72,545808
72,546012
72,546213
72,546410
72,546598
72,546802
72,546995
72,547177
72,547349
72,547518
72,547690
72,547863
72,548043
72,548224
72,548404
72,548580
72,548755
72,548936
72,549130
72,549330
72,549527
72,549719
72,549921
72,550115
72,550316
72,550510
72,550694
72,550875
72,551060
72,551254
72,551467
72,551679
72,551890
72,552094
72,552300
72,552506
72,552711
72,552921
72,553123
72,553312
72,553493
72,553684
72,553885
72,554078
72,554256
72,554440
72,554624
72,554808
72,555001
72,555201
72,555404
72,555591
72,555762
72,555929
72,556097
72,556268
72,556438
72,556618
72,556797
72,556985
72,557177
72,557380
72,557593
72,557796
72,557991
72,558174
72,558357
72,558536
72,558726
72,558925
72,559125
72,559322
72,559515
72,559719
72,559932
72,560146
72,560351
72,560553
72,560752
72,560952
72,561162
72,561371
72,561574
72,561758
72,561942
72,562140
72,562329
72,562523
72,562709
72,562878
72,563044
72,563209
72,563373
72,563556
72,563751
72,563938
72,564113
72,564286
72,564470
72,564672
72,564882
72,565094
72,565304
72,565509
72,565717
72,565935
72,566154
72,566361
72,566550
72,566748
72,566946
72,567145
72,567348
72,567546
72,567742
72,567934
72,568130
72,568340
72,568540
72,568738
72,568931
72,569130
72,569331
72,569536
72,569748
72,569948
72,570142
72,570338
72,570539
72,570744
72,570945
72,571144
72,571344
72,571532
72,571726
72,571933
72,572141
72,572338
72,572527
72,572716
72,572918
72,573110
72,573294
72,573486
72,573668
72,573850
72,574031
72,574223
72,574432
72,574628
72,574822
72,575015
72,575209
72,575411
72,575619
72,575828
72,576027
72,576223
72,576419
72,576612
72,576816
72,577005
72,577183
72,577356
72,577537
72,577723
72,577917
72,578110
72,578309
72,578505
72,578698
72,578893
72,579105
72,579312
72,579508
72,579697
72,579893
72,580090
72,580291
72,580504
72,580701
72,580885
72,581075
72,581269
72,581477
72,581684
72,581889
72,582086
72,582277
72,582471
72,582675
72,582877
72,583080
72,583277
72,583470
72,583658
72,583852
72,584045
72,584235
72,584423
72,584617
72,584815
72,585017
72,585231
72,585441
72,585646
72,585841
72,586046
72,586257
72,586464
72,586677
72,586879
72,587077
72,587273
72,587485
72,587700
72,587901
72,588102
72,588300
72,588494
72,588702
72,588913
72,589118
72,589313
72,589508
72,589703
72,589911
72,590118
72,590318
72,590514
72,590712
72,590907
72,591109
72,591326
72,591527
72,591719
72,591917
72,592112
72,592319
72,592524
72,592724
72,592920
72,593113
72,593305
72,593510
72,593720
72,593917
72,594110
72,594308
72,594502
72,594708
72,594907
72,595111
72,595307
72,595497
72,595692
72,595898
72,596107
72,596305
72,596493
72,596680
72,596868
72,597052
72,597237
72,597430
72,597620
72,597808
72,597999
72,598197
72,598410
72,598618
72,598815
72,599015
72,599205
72,599405
72,599615
72,599826
72,600023
72,600217
72,600420
72,600620
72,600827
72,601032
72,601224
72,601416
72,601605
72,601792
72,601993
72,602194
72,602387
72,602572
72,602769
72,602972
72,603177
72,603384
72,603591
72,603783
72,603973
72,604176
72,604389
72,604593
72,604786
72,604979
72,605171
72,605366
72,605561
72,605759
72,605954
72,606143
72,606326
72,606521
72,606715
72,606913
72,607102
72,607278
72,607457
72,607634
72,607818
72,608018
72,608211
72,608394
72,608578
72,608765
72,608961
72,609157
72,609359
72,609560
72,609751
72,609939
72,610136
72,610331
72,610534
72,610730
72,610915
72,611109
72,611303
72,611494
72,611690
72,611882
72,612074
72,612264
72,612454
72,612654
72,612852
72,613048
72,613238
72,613424
72,613617
72,613806
72,614010
72,614214
72,614408
72,614593
72,614779
72,614972
72,615172
72,615363
72,615553
72,615747
72,615933
72,616123
72,616325
72,616520
72,616719
72,616911
72,617090
72,617285
72,617480
72,617670
72,617863
72,618050
72,618236
72,618420
72,618619
72,618829
72,619027
72,619222
72,619408
72,619600
72,619797
72,619999
72,620196
72,620383
72,620563
72,620745
72,620937
72,621132
72,621332
72,621524
72,621704
72,621892
72,622082
72,622276
72,622478
72,622674
72,622870
72,623058
72,623248
72,623450
72,623651
72,623851
72,624046
72,624242
72,624438
72,624627
72,624828
72,625028
72,625220
72,625402
72,625591
72,625792
72,625993
72,626197
72,626391
72,626581
72,626763
72,626955
72,627156
72,627360
72,627553
72,627745
72,627942
72,628140
72,628338
72,628547
72,628748
72,628934
72,629123
72,629312
72,629517
72,629709
72,629902
72,630091
72,630275
72,630465
72,630656
72,630855
72,631058
72,631255
72,631450
72,631650
72,631859
72,632072
72,632271
72,632465
72,632660
72,632854
72,633052
72,633251
72,633454
72,633648
72,633831
72,634020
72,634217
72,634415
72,634610
72,634794
72,634974
72,635156
72,635341
72,635530
72,635727
72,635915
72,636096
72,636279
72,636465
72,636659
72,636860
72,637060
72,637254
72,637431
72,637612
72,637798
72,637986
72,638171
72,638347
72,638514
72,638691
72,638864
72,639040
72,639221
72,639403
72,639584
72,639762
72,639941
72,640119
72,640311
72,640502
72,640688
72,640863
72,641031
72,641209
72,641394
72,641586
72,641790
72,641984
72,642167
72,642344
72,642529
72,642723
72,642913
72,643098
72,643291
72,643481
72,643674
72,643879
72,644091
72,644300
72,644491
72,644685
72,644887
72,645094
72,645302
72,645503
72,645699
72,645890
72,646087
72,646291
72,646495
72,646691
72,646889
72,647081
72,647277
72,647481
72,647688
72,647898
72,648096
72,648291
72,648482
72,648687
72,648895
72,649093
72,649285
72,649481
72,649675
72,649876
72,650082
72,650288
72,650483
72,650673
72,650874
72,651081
72,651281
72,651484
72,651670
72,651862
72,652053
72,652249
72,652441
72,652640
72,652833
72,653026
72,653215
72,653419
72,653630
72,653834
72,654035
72,654232
72,654422
72,654606
72,654800
72,655004
72,655198
72,655395
72,655598
72,655802
72,656013
72,656222
72,656424
72,656617
72,656749
72,657004
72,657221
72,657427
72,657628
72,657826
72,658027
72,658233
72,658439
72,658640
72,658835
72,659028
72,659230
72,659448
72,659669
72,659884
72,660097
72,660296
72,660490
72,660698
72,660910
72,661116
72,661306
72,661501
72,661705
72,661910
72,662110
72,662314
72,662517
72,662708
72,662900
72,663112
72,663323
72,663521
72,663716
72,663916
72,664121
72,664328
72,664538
72,664748
72,664938
72,665127
72,665327
72,665539
72,665747
72,665949
72,666154
72,666354
72,666553
72,666768
72,666981
72,667184
72,667375
72,667565
72,667764
72,667965
72,668170
72,668369
72,668559
72,668755
72,668955
72,669161
72,669366
72,669570
72,669762
72,669949
72,670151
72,670358
72,670559
72,670759
72,670959
72,671154
72,671350
72,671560
72,671771
72,671966
72,672157
72,672359
72,672557
72,672761
72,672968
72,673164
72,673343
72,673513
72,673695
72,673899
72,674105
72,674302
72,674500
72,674702
72,674900
72,675103
72,675317
72,675529
72,675723
72,675922
72,676128
72,676339
72,676544
72,676750
72,676955
72,677147
72,677344
72,677555
72,677765
72,677963
72,678157
72,678357
72,678559
72,678758
72,678965
72,679168
72,679363
72,679552
72,679750
72,679965
72,680170
72,680368
72,680563
72,680751
72,680940
72,681136
72,681340
72,681542
72,681732
72,681925
72,682127
72,682340
72,682553
72,682758
72,682959
72,683157
72,683350
72,683556
72,683768
72,683976
72,684174
72,684372
72,684579
72,684789
72,684997
72,685202
72,685400
72,685602
72,685800
72,686009
72,686220
72,686417
72,686608
72,686801
72,687008
72,687215
72,687418
72,687624
72,687810
72,688002
72,688201
72,688412
72,688614
72,688811
72,689007
72,689205
72,689401
72,689607
72,689814
72,690002
72,690186
72,690371
72,690554
72,690744
72,690931
72,691117
72,691305
72,691491
72,691688
72,691887
72,692095
72,692304
72,692500
72,692695
72,692896
72,693111
72,693317
72,693522
72,693726
72,693914
72,694107
72,694310
72,694513
72,694711
72,694903
72,695098
72,695294
72,695497
72,695700
72,695898
72,696094
72,696281
72,696466
72,696666
72,696868
72,697059
72,697245
72,697435
72,697619
72,697816
72,698019
72,698226
72,698417
72,698603
72,698788
72,698971
72,699161
72,699358
72,699550
72,699739
72,699935
72,700137
72,700351
72,700564
72,700775
72,700972
72,701166
72,701374
72,701579
72,701778
72,701975
72,702171
72,702367
72,702568
72,702770
72,702979
72,703179
72,703371
72,703567
72,703772
72,703983
72,704181
72,704387
72,704585
72,704779
72,704976
72,705185
72,705398
72,705595
72,705786
72,705989
72,706191
72,706396
72,706602
72,706808
72,706996
72,707184
72,707386
72,707590
72,707780
72,707971
72,708158
72,708347
72,708534
72,708736
72,708947
72,709147
72,709337
72,709531
72,709726
72,709922
72,710119
72,710315
72,710510
72,710702
72,710899
72,711109
72,711321
72,711532
72,711731
72,711930
72,712127
72,712332
72,712543
72,712747
72,712947
72,713144
72,713346
72,713562
72,713767
72,713969
72,714166
72,714367
72,714574
72,714786
72,714994
72,715194
72,715382
72,715572
72,715763
72,715957
72,716140
72,716326
72,716516
72,716711
72,716900
72,717102
72,717310
72,717517
72,717706
72,717892
72,718095
72,718303
72,718506
72,718709
72,718908
72,719111
72,719313
72,719526
72,719739
72,719935
72,720129
72,720325
72,720530
72,720738
72,720946
72,721149
72,721347
72,721545
72,721743
72,721948
72,722158
72,722856
72,723032
72,737433
72,738084
72,738244
72,738404
72,738732
72,738898
72,739054
72,739209
72,739362
72,739520
72,739681
72,739845
72,740010
72,740176
72,740333
72,740483
72,740637
72,740796
72,740962
72,741122
72,741222
72,742401
72,742567
72,743050
72,743208
72,743374
72,743545
72,743710
72,743866
72,744029
72,744187
72,744344
72,744508
72,744676
72,744847
72,745009
72,745163
72,745326
72,745482
72,745639
72,745807
72,745974
72,746140
72,746299
72,746454
72,746613
72,746773
72,746938
72,747104
72,747268
72,747433
72,747588
72,747741
72,747903
72,748065
72,748230
72,748397
72,748559
72,748721
72,748876
72,749029
72,749190
72,749358
72,749522
72,749683
72,749841
72,749997
72,750154
72,750307
72,750466
72,750638
72,750804
72,750963
72,751121
72,751275
72,751431
72,751588
72,751749
72,751919
72,752084
72,752239
72,752394
72,752548
72,752706
72,752865
72,753028
72,753197
72,753360
72,753516
72,753669
72,753822
72,753984
72,754148
72,754310
72,754477
72,754639
72,754792
72,754945
72,755100
72,755263
72,755430
72,755595
72,755756
72,755917
72,756070
72,756222
72,756380
72,756546
72,756713
72,756877
72,757037
72,757373
72,758042
72,758208
72,758534
72,758693
72,758851
72,759020
72,759527
72,760017
72,760521
72,761009
72,761175
72,761335
72,761510
72,761678
72,761842
72,762008
72,762165
72,762327
72,762496
72,762671
72,762831
72,763007
72,763168
72,763328
72,763486
72,763656
72,763987
72,764166
72,764316
72,764488
72,764644
72,764802
72,764985
72,765150
72,765322
72,765476
72,765645
72,765810
72,765965
72,766126
72,766307
72,766483
72,766641
72,766809
72,766969
72,767135
72,767301
72,767461
72,767808
72,767962
72,768118
72,768451
72,768620
72,768968
72,769127
72,769290
72,769444
72,769613
72,769780
72,770120
72,770440
72,770609
72,770764
72,770936
72,771111
72,771437
72,771607
72,771772
72,771922
72,772090
72,772262
72,772436
72,772601
72,772760
72,772920
72,773087
72,773244
72,773415
72,773585
72,773762
72,773923
72,774083
72,774576
72,774913
72,775084
72,775400
72,775570
72,775730
72,775897
72,776075
72,776233
72,776395
72,776562
72,776713
72,776898
72,777049
72,777214
72,777563
72,777725
72,778222
72,778390
72,778553
72,778714
72,778875
72,779037
72,779198
72,779374
72,779547
72,779709
72,779873
72,780521
72,780877
72,781039
72,781192
72,781351
72,781503
72,781692
72,781851
72,782026
72,782197
72,782356
72,782518
72,782679
72,782843
72,783017
72,783183
72,783352
72,783518
72,783672
72,783837
72,783991
72,784165
72,784341
72,784673
72,784837
72,785151
72,785318
72,785498
72,785674
72,785827
72,785995
72,786144
72,786318
72,786485
72,786655
72,786835
72,786997
72,787147
72,787321
72,787483
72,787639
72,787815
72,787981
72,788148
72,788317
72,788476
72,788643
72,788801
72,789145
72,789312
72,789475
72,789634
72,789789
72,790123
72,790296
72,790465
72,790634
72,790794
72,790959
72,791117
72,791285
72,791455
72,791621
72,791791
72,791953
72,792115
72,792277
72,792429
72,792609
72,792781
72,792948
72,793109
72,793266
72,793437
72,793599
72,793942
72,794106
72,794267
72,794427
72,794591
72,794746
72,794925
72,795085
72,795431
72,795592
72,795747
72,795906
72,796083
72,796242
72,796412
72,796592
72,796748
72,796905
72,797069
72,797238
72,797580
72,797748
72,797910
72,798065
72,798224
72,798393
72,798904
72,799062
72,799222
72,799390
72,799715
72,799891
72,800061
72,800553
72,800705
72,800873
72,801048
72,801386
72,801542
72,801707
72,802032
72,802209
72,802545
72,802705
72,802862
72,803031
72,803357
72,803524
72,803699
72,803872
72,804189
72,804357
72,804521
72,804694
72,804858
72,805023
72,805192
72,805350
72,805505
72,805676
72,805850
72,806012
72,806187
72,806346
72,806667
72,806836
72,807005
72,807174
72,807342
72,807504
72,807660
72,807826
72,807995
72,808150
72,808338
72,808506
72,808667
72,808824
72,808985
72,809153
72,809315
72,809480
72,809666
72,809828
72,809981
72,810143
72,810307
72,810466
72,810641
72,810819
72,811138
72,811299
72,811461
72,811633
72,811802
72,811963
72,812131
72,812300
72,812459
72,812620
72,812952
72,813132
72,813297
72,813456
72,813627
72,813785
72,813937
72,814447
72,814618
72,814775
72,814937
72,815099
72,815274
72,815439
72,815611
72,815777
72,815936
72,816096
72,816264
72,816417
72,816769
72,816930
72,817252
72,817418
72,817582
72,817751
72,817923
72,818090
72,818255
72,818423
72,818581
72,818744
72,818910
72,819082
72,819249
72,819414
72,819579
72,819744
72,819891
72,820064
72,820233
72,820404
72,820574
72,820735
72,820898
72,821055
72,821225
72,821567
72,821731
72,821896
72,822056
72,822381
72,822553
72,822725
72,822897
72,823213
72,823542
72,823698
72,823872
72,824218
72,824376
72,824534
72,824702
72,824867
72,825026
72,825199
72,825381
72,825534
72,825695
72,825857
72,826022
72,826197
72,826357
72,826527
72,826693
72,826858
72,827019
72,827345
72,827519
72,827686
72,827857
72,828016
72,828177
72,828335
72,828504
72,828683
72,828847
72,829179
72,829341
72,829492
72,829658
72,829824
72,830007
72,830172
72,830329
72,830490
72,830661
72,830823
72,830984
72,831158
72,831331
72,831493
72,831651
72,831817
72,831973
72,832141
72,832313
72,832486
72,832654
72,832812
72,833143
72,833308
72,833466
72,833643
72,833807
72,833971
72,834126
72,834292
72,834628
72,834797
72,834964
72,835132
72,835292
72,835450
72,835609
72,835793
72,835957
72,836118
72,836286
72,836447
72,836613
72,836773
72,836936
72,837111
72,837289
72,837442
72,837607
72,837712
72,837884
72,838227
72,838395
72,838561
72,838721
72,838881
72,839044
72,839211
72,839729
72,839887
72,840044
72,840202
72,840371
72,840536
72,840705
72,840881
72,841206
72,841365
72,841865
72,842034
72,842208
72,842367
72,842525
72,842689
72,842842
72,843021
72,843192
72,843359
72,843527
72,843689
72,844185
72,844347
72,844518
72,844682
72,845005
72,845170
72,845686
72,845847
72,846002
72,846167
72,846839
72,846997
72,847162
72,847318
72,847485
72,847649
72,847823
72,847997
72,848159
72,848325
72,848482
72,848640
72,848813
72,848979
72,849143
72,849309
72,849478
72,849641
72,849801
72,849959
72,850129
72,850303
72,850477
72,850634
72,850799
72,850962
72,851121
72,851286
72,851466
72,851632
72,851798
72,851948
72,852117
72,852282
72,852446
72,852620
72,852790
72,852955
72,853111
72,853279
72,853431
72,853600
72,853936
72,854118
72,854275
72,854598
72,854756
72,854926
72,855099
72,855266
72,855440
72,855595
72,855749
72,855915
72,856078
72,856250
72,856428
72,856757
72,856914
72,857072
72,857248
72,857416
72,857581
72,857751
72,857912
72,858072
72,858236
72,858579
72,858740
72,858914
72,859075
72,859240
72,859396
72,859561
72,859723
72,859905
72,860079
72,860236
72,860397
72,860563
72,860722
72,860885
72,861058
72,861562
72,861709
72,861882
72,862043
72,862218
72,862384
72,862552
72,862717
72,862877
72,863036
72,863373
72,863548
72,863710
72,863875
72,864041
72,864198
72,864354
72,864530
72,864704
72,864866
72,865034
72,865190
72,865354
72,865518
72,865677
72,865863
72,866027
72,866352
72,866675
72,866841
72,867013
72,867183
72,867516
72,867674
72,867838
72,868004
72,868166
72,868339
72,868511
72,868676
72,868830
72,868989
72,869160
72,869326
72,869494
72,869670
72,869831
72,869991
72,870147
72,870307
72,870489
72,870820
72,870991
72,871153
72,871312
72,871471
72,871634
72,871804
72,871986
72,872144
72,872313
72,872478
72,872632
72,872796
72,872966
72,873134
72,873475
72,873637
72,873795
72,873953
72,874121
72,874294
72,874468
72,874632
72,874955
72,875119
72,875453
72,875619
72,875790
72,875951
72,876106
72,876605
72,876773
72,876949
72,877112
72,877272
72,877434
72,877602
72,877771
72,877938
72,878103
72,878270
72,878429
72,878592
72,878751
72,878925
72,879097
72,879432
72,879585
72,879751
72,879913
72,880250
72,880424
72,880747
72,880914
72,881072
72,881234
72,881412
72,881576
72,882072
72,882226
72,882399
72,882559
72,882735
72,882906
72,883072
72,883561
72,883889
72,884064
72,884231
72,884387
72,884549
72,884711
72,884880
72,885047
72,885221
72,885395
72,885551
72,885712
72,885870
72,886034
72,886211
72,886371
72,886537
72,886713
72,886865
72,887023
72,887193
72,887360
72,887534
72,887702
72,887864
72,888032
72,888192
72,888340
72,888511
72,888694
72,888864
72,889024
72,889187
72,889349
72,889508
72,889669
72,889837
72,890011
72,890189
72,890349
72,890504
72,890670
72,890838
72,890996
72,891171
72,891347
72,891508
72,891664
72,891821
72,891998
72,892159
72,892336
72,892500
72,892664
72,892827
72,892986
72,893150
72,893323
72,893481
72,893657
72,893821
72,893986
72,894147
72,894308
72,894477
72,894649
72,894817
72,894989
72,895149
72,895308
72,895468
72,895629
72,895803
72,895976
72,896142
72,896306
72,896466
72,896632
72,896792
72,896958
72,897132
72,897304
72,897468
72,897626
72,897787
72,897953
72,898119
72,898283
72,898457
72,898624
72,898791
72,898948
72,899102
72,899277
72,899446
72,899787
72,899949
72,900106
72,900437
72,900773
72,900942
72,901110
72,901269
72,901427
72,901587
72,901759
72,902102
72,902429
72,902583
72,902918
72,903094
72,903421
72,903586
72,903746
72,903908
72,904072
72,904241
72,904410
72,904579
72,905229
72,905401
72,905566
72,905743
72,905905
72,906062
72,906225
72,906387
72,906562
72,906721
72,906891
72,907065
72,907223
72,907380
72,907552
72,907717
72,907885
72,908055
72,908222
72,908379
72,908548
72,908695
72,909211
72,909380
72,909540
72,909705
72,909867
72,910033
72,910204
72,910542
72,910699
72,910863
72,911024
72,911185
72,911353
72,911532
72,911697
72,912024
72,912346
72,912511
72,912683
72,912857
72,913022
72,913179
72,913339
72,913507
72,913670
72,913838
72,914009
72,914185
72,914344
72,914506
72,914661
72,914830
72,914999
72,915167
72,915344
72,915506
72,915665
72,915819
72,915992
72,916157
72,916333
72,916495
72,916828
72,916977
72,917144
72,917312
72,917485
72,917654
72,917817
72,917980
72,918143
72,918297
72,918474
72,918637
72,918814
72,918983
72,919140
72,919305
72,919464
72,919625
72,919962
72,920140
72,920300
72,920457
72,920625
72,920785
72,920948
72,921462
72,921620
72,921777
72,921946
72,922111
72,922445
72,922621
72,922781
72,922938
72,923100
72,923271
72,923441
72,923605
72,923777
72,923934
72,924097
72,924258
72,924422
72,924595
72,924768
72,924930
72,925100
72,925256
72,925417
72,925582
72,925752
72,925922
72,926093
72,926738
72,926903
72,927077
72,927250
72,927417
72,927734
72,927905
72,928064
72,928238
72,928413
72,928577
72,928734
72,928896
72,929055
72,929217
72,929385
72,929565
72,929736
72,929901
72,930054
72,930217
72,930382
72,930550
72,930722
72,930890
72,931054
72,931216
72,931376
72,931536
72,931704
72,931881
72,932051
72,932211
72,932698
72,932862
72,933033
72,933209
72,933370
72,933531
72,933697
72,934196
72,934363
72,934532
72,934696
72,934854
72,935017
72,935180
72,935350
72,935687
72,935856
72,936013
72,936174
72,936342
72,936500
72,936669
72,936837
72,937018
72,937174
72,937329
72,937493
72,937663
72,937835
72,938003
72,938166
72,938337
72,938497
72,938648
72,938827
72,938986
72,939163
72,939327
72,939491
72,939654
72,939811
72,939972
72,940143
72,940491
72,940811
72,940977
72,941137
72,941300
72,941476
72,941647
72,941811
72,941970
72,942457
72,942626
72,942804
72,942973
72,943132
72,943454
72,943623
72,943785
72,943959
72,944128
72,944290
72,944447
72,944605
72,944770
72,945287
72,945454
72,945611
72,945767
72,945928
72,946099
72,946275
72,946774
72,946928
72,947092
72,947260
72,947435
72,947603
72,947767
72,947931
72,948091
72,948247
72,948406
72,948754
72,948928
72,949252
72,949571
72,949742
72,949906
72,950084
72,950249
72,950405
72,950727
72,950894
72,951073
72,951243
72,951409
72,951571
72,951728
72,951893
72,952060
72,952227
72,952732
72,952888
72,953044
72,953211
72,953384
72,953557
72,953728
72,953887
72,954050
72,954211
72,954374
72,954545
72,954715
72,954881
72,955368
72,955529
72,955694
72,955872
72,956040
72,956203
72,956369
72,956526
72,956688
72,956855
72,957028
72,957198
72,957363
72,957522
72,957680
72,957844
72,958010
72,958182
72,958353
72,958522
72,958685
72,958844
72,959003
72,959164
72,959343
72,959682
72,959848
72,960003
72,960162
72,960329
72,960496
72,960665
72,960837
72,961166
72,961327
72,961487
72,961654
72,961822
72,961991
72,962329
72,962485
72,962646
72,962807
72,962977
72,963152
72,963323
72,963650
72,963804
72,963967
72,964132
72,964305
72,964478
72,964642
72,965127
72,965461
72,965632
72,965802
72,965960
72,966121
72,966286
72,966448
72,966612
72,966785
72,967122
72,967281
72,967442
72,967609
72,967780
72,967946
72,968118
72,968277
72,968440
72,968602
72,968769
72,968936
72,969109
72,969607
72,969921
72,970093
72,970265
72,970432
72,970596
72,970927
72,971081
72,971252
72,971419
72,971598
72,971762
72,971922
72,972080
72,972247
72,972401
72,972581
72,972754
72,972922
72,973081
72,973240
72,973400
72,973567
72,973911
72,974083
72,974246
72,974403
72,974559
72,974723
72,974889
72,975063
72,975228
72,975562
72,975716
72,975877
72,976045
72,976218
72,976386
72,976558
72,976722
72,976878
72,977372
72,977548
72,977711
72,977876
72,978042
72,978360
72,978708
72,978870
72,979036
72,979200
72,979359
72,979682
72,979854
72,980029
72,980196
72,980356
72,980523
72,980684
72,981021
72,981183
72,981354
72,981515
72,981671
72,981840
72,982002
72,982165
72,982340
72,982517
72,982678
72,982839
72,982995
72,983163
72,983331
72,983497
72,983661
72,983836
72,984155
72,984318
72,984487
72,984656
72,984828
72,985318
72,985474
72,985640
72,985818
72,985985
72,986152
72,986311
72,986470
72,986640
72,986974
72,987149
72,987312
72,987473
72,987633
72,987799
72,987957
72,988129
72,988292
72,988470
72,988633
72,988796
72,988954
72,989118
72,989451
72,989623
72,989796
72,989957
72,990113
72,990277
72,990442
72,990611
72,990783
72,990952
72,991113
72,991278
72,991432
72,991599
72,991777
72,991942
72,992107
72,992277
72,992437
72,992593
72,992754
72,993095
72,993265
72,993430
72,993599
72,993756
72,993915
72,994079
72,994253
72,994423
72,994909
72,995072
72,995239
72,995403
72,995580
72,995752
72,995910
72,996066
72,996238
72,996391
72,996563
72,996738
72,996906
72,997071
72,997227
72,997393
72,997716
72,997899
72,998056
72,998230
72,998393
72,998547
72,998711
72,998884
72,999052
72,999218
72,999388
72,999552
72,999864
72,1000043
72,1000210
72,1000382
72,1000547
72,1000707
72,1000873
72,1001031
72,1001186
72,1001364
72,1001701
72,1001868
72,1002028
72,1002190
72,1002353
72,1002524
72,1002859
72,1003028
72,1003185
72,1003345
72,1003511
72,1003677
72,1003844
72,1004022
72,1004187
72,1004350
72,1004611
72,1004785
72,1004952
72,1005120
72,1005293
72,1005459
72,1005617
72,1005776
72,1005939
72,1006112
72,1006446
72,1006623
72,1006781
72,1006941
72,1007100
72,1007266
72,1007438
72,1007605
72,1007779
72,1007936
72,1008098
72,1008259
72,1008420
72,1008591
72,1008769
72,1008932
72,1009095
72,1009263
72,1009414
72,1009584
72,1009755
72,1009928
72,1010092
72,1010256
72,1010417
72,1010577
72,1010743
72,1010904
72,1011077
72,1011254
72,1011419
72,1011573
72,1011741
72,1011900
72,1012063
72,1012233
72,1012408
72,1012576
72,1012734
72,1012894
72,1013058
72,1013224
72,1013394
72,1013561
72,1013731
72,1013895
72,1014057
72,1014207
72,1014381
72,1014551
72,1014720
72,1014885
72,1015050
72,1015213
72,1015370
72,1015705
72,1015879
72,1016045
72,1016213
72,1016376
72,1016532
72,1016693
72,1017029
72,1017368
72,1017534
72,1017692
72,1017858
72,1018017
72,1018191
72,1018368
72,1018855
72,1019018
72,1019171
72,1019349
72,1019519
72,1019689
72,1019851
72,1020012
72,1020172
72,1020336
72,1020670
72,1020849
72,1021015
72,1021171
72,1021330
72,1021491
72,1021660
72,1021829
72,1022005
72,1022173
72,1022490
72,1022653
72,1022818
72,1022990
72,1023161
72,1023325
72,1023498
72,1023655
72,1023811
72,1023972
72,1024145
72,1024317
72,1024485
72,1024651
72,1024817
72,1024973
72,1025138
72,1025306
72,1025474
72,1025648
72,1025806
72,1025969
72,1026131
72,1026292
72,1027132
72,1027297
72,1027454
72,1027617
72,1027787
72,1027956
72,1028133
72,1028442
72,1028944
72,1029118
72,1029288
72,1029450
72,1029611
72,1029766
72,1029934
72,1030097
72,1030270
72,1030610
72,1030768
72,1030928
72,1031090
72,1031262
72,1031430
72,1031596
72,1031765
72,1031926
72,1032088
72,1032250
72,1032585
72,1032759
72,1032923
72,1033085
72,1033252
72,1033410
72,1033569
72,1033746
72,1033915
72,1034076
72,1034567
72,1034733
72,1034892
72,1035069
72,1035242
72,1035405
72,1035566
72,1035663
72,1036000
72,1036171
72,1036345
72,1036511
72,1036674
72,1036834
72,1036989
72,1037319
72,1037494
72,1037666
72,1037837
72,1037997
72,1038157
72,1038315
72,1038484
72,1038655
72,1038822
72,1039157
72,1039319
72,1039643
72,1039818
72,1039983
72,1040152
72,1040317
72,1040476
72,1040635
72,1040798
72,1040961
72,1041141
72,1041305
72,1041467
72,1041634
72,1041798
72,1041956
72,1042128
72,1042302
72,1042469
72,1042631
72,1042797
72,1042957
72,1043115
72,1043279
72,1043449
72,1043624
72,1043794
72,1043950
72,1044114
72,1044278
72,1044440
72,1044610
72,1044787
72,1044946
72,1045113
72,1045274
72,1045438
72,1045599
72,1045767
72,1045942
72,1046108
72,1046276
72,1046439
72,1046597
72,1046761
72,1046930
72,1047102
72,1047266
72,1047432
72,1047596
72,1047753
72,1047910
72,1048258
72,1048417
72,1048590
72,1048755
72,1048915
72,1049074
72,1049232
72,1049412
72,1049583
72,1049749
72,1049907
72,1050235
72,1050568
72,1050743
72,1050908
72,1051072
72,1051230
72,1051391
72,1051557
72,1051723
72,1052226
72,1052382
72,1052548
72,1052713
72,1052883
72,1053047
72,1053227
72,1053391
72,1053546
72,1053709
72,1053874
72,1054032
72,1054206
72,1054377
72,1054548
72,1054711
72,1054868
72,1055028
72,1055197
72,1055372
72,1055536
72,1055874
72,1056033
72,1056187
72,1056351
72,1056522
72,1056690
72,1056862
72,1057024
72,1057190
72,1057350
72,1057513
72,1057679
72,1057853
72,1058024
72,1058184
72,1058346
72,1058511
72,1058670
72,1058830
72,1058997
72,1059506
72,1059667
72,1059832
72,1059998
72,1060161
72,1060337
72,1060509
72,1060670
72,1060828
72,1060993
72,1061307
72,1061483
72,1061827
72,1061986
72,1062143
72,1062313
72,1062477
72,1062645
72,1062815
72,1062982
72,1063146
72,1063304
72,1063461
72,1063646
72,1063973
72,1064142
72,1064311
72,1064468
72,1064625
72,1064787
72,1064962
72,1065133
72,1065295
72,1065464
72,1065621
72,1065786
72,1065948
72,1066115
72,1066289
72,1066460
72,1066621
72,1066781
72,1066949
72,1067110
72,1067272
72,1067442
72,1067619
72,1067782
72,1067941
72,1068101
72,1068266
72,1068431
72,1068597
72,1068769
72,1068936
72,1069098
72,1069419
72,1069592
72,1069756
72,1069928
72,1070103
72,1070264
72,1070423
72,1070583
72,1070745
72,1070916
72,1071253
72,1071740
72,1071901
72,1072067
72,1072241
72,1072413
72,1072581
72,1072744
72,1072903
72,1073062
72,1073225
72,1073570
72,1074220
72,1074382
72,1074552
72,1074725
72,1074895
72,1075059
72,1075222
72,1075386
72,1075542
72,1075710
72,1075877
72,1076376
72,1076541
72,1076704
72,1076873
72,1077043
72,1077207
72,1077383
72,1077543
72,1077702
72,1077865
72,1078030
72,1078184
72,1078372
72,1078537
72,1078703
72,1078861
72,1079022
72,1079190
72,1079362
72,1079527
72,1079696
72,1079863
72,1080022
72,1080181
72,1080328
72,1080513
72,1080685
72,1080855
72,1081019
72,1081180
72,1081344
72,1081502
72,1081670
72,1081848
72,1082017
72,1082489
72,1083003
72,1083169
72,1083336
72,1083554
72,1083727
72,1083893
72,1084063
72,1084230
72,1084404
72,1084589
72,1084764
72,1084932
72,1085098
72,1085266
72,1085433
72,1085604
72,1085786
72,1085968
72,1086151
72,1086326
72,1086507
72,1086680
72,1086860
72,1087047
72,1087225
72,1087395
72,1087563
72,1087730
72,1087906
72,1088083
72,1088262
72,1088441
72,1088607
72,1088775
72,1088942
72,1089118
72,1089295
72,1089468
72,1089642
72,1089807
72,1089964
72,1090127
72,1090293
72,1090462
72,1090630
72,1090796
72,1090962
72,1091121
72,1091279
72,1091441
72,1091612
72,1091786
72,1091953
72,1092120
72,1092283
72,1092445
72,1092616
72,1092788
72,1092973
72,1093149
72,1093317
72,1093488
72,1093655
72,1093818
72,1093990
72,1094166
72,1094345
72,1094513
72,1094677
72,1094848
72,1095015
72,1095185
72,1095361
72,1095538
72,1095705
72,1095864
72,1096033
72,1096200
72,1096366
72,1096540
72,1096715
72,1096889
72,1097052
72,1097218
72,1097388
72,1097554
72,1097726
72,1097897
72,1098067
72,1098231
72,1098392
72,1098558
72,1098726
72,1098893
72,1099066
72,1099236
72,1099398
72,1099554
72,1099709
72,1099879
72,1100048
72,1100218
72,1100392
72,1100562
72,1100730
72,1100895
72,1101069
72,1101249
72,1101427
72,1101606
72,1101777
72,1101948
72,1102117
72,1102285
72,1102467
72,1102646
72,1102817
72,1102984
72,1103152
72,1103322
72,1103493
72,1103672
72,1103853
72,1104027
72,1104195
72,1104361
72,1104533
72,1104703
72,1104878
72,1105059
72,1105232
72,1105395
72,1105558
72,1105728
72,1105896
72,1106067
72,1106243
72,1106415
72,1106577
72,1106738
72,1106899
72,1107069
72,1107241
72,1107408
72,1107586
72,1107755
72,1107915
72,1108076
72,1108243
72,1108415
72,1108586
72,1108756
72,1108923
72,1109082
72,1109239
72,1109398
72,1109568
72,1109735
72,1109898
72,1110062
72,1110219
72,1110374
72,1110532
72,1110692
72,1110863
72,1111034
72,1111198
72,1111365
72,1111528
72,1111688
72,1111857
72,1112029
72,1112207
72,1112378
72,1112544
72,1112712
72,1112876
72,1113038
72,1113207
72,1113381
72,1113549
72,1113713
72,1113874
72,1114032
72,1114191
72,1114355
72,1114521
72,1114687
72,1114846
72,1114998
72,1115155
72,1115317
72,1115483
72,1115659
72,1115838
72,1116019
72,1116198
72,1116376
72,1116551
72,1116727
72,1116904
72,1117086
72,1117264
72,1117432
72,1117595
72,1117766
72,1117941
72,1118115
72,1118292
72,1118466
72,1118636
72,1118801
72,1118976
72,1119161
72,1119342
72,1119526
72,1119700
72,1119873
72,1120040
72,1120207
72,1120392
72,1120571
72,1120746
72,1120920
72,1121091
72,1121261
72,1121430
72,1121614
72,1121798
72,1121978
72,1122151
72,1122325
72,1122498
72,1122673
72,1122857
72,1123043
72,1123224
72,1123396
72,1123566
72,1123739
72,1123911
72,1124089
72,1124273
72,1124444
72,1124610
72,1124773
72,1124943
72,1125113
72,1125284
72,1125464
72,1125636
72,1125796
72,1125959
72,1126124
72,1126292
72,1126463
72,1126636
72,1126810
72,1126971
72,1127128
72,1127288
72,1127456
72,1127626
72,1127793
72,1127966
72,1128132
72,1128292
72,1128455
72,1128615
72,1128790
72,1128960
72,1129125
72,1129299
72,1129464
72,1129622
72,1129787
72,1129956
72,1130131
72,1130298
72,1130462
72,1130625
72,1130781
72,1130933
72,1131093
72,1131261
72,1131429
72,1131592
72,1131753
72,1131913
72,1132069
72,1132225
72,1132388
72,1132557
72,1132723
72,1132883
72,1133040
72,1133201
72,1133356
72,1133515
72,1133682
72,1133852
72,1134020
72,1134178
72,1134337
72,1134499
72,1134658
72,1134823
72,1134991
72,1135158
72,1135318
72,1135473
72,1135632
72,1135789
72,1135949
72,1136115
72,1136276
72,1136438
72,1136586
72,1136728
72,1136872
72,1137023
72,1137179
72,1137339
72,1137505
72,1137670
72,1137835
72,1137994
72,1138161
72,1138342
72,1138512
72,1138682
72,1138854
72,1139023
72,1139186
72,1139346
72,1139520
72,1139700
72,1139875
72,1140052
72,1140225
72,1140396
72,1140565
72,1140741
72,1140922
72,1141100
72,1141277
72,1141448
72,1141623
72,1141793
72,1141971
72,1142162
72,1142342
72,1142517
72,1142688
72,1142862
72,1143038
72,1143214
72,1143403
72,1143585
72,1143751
72,1143919
72,1144090
72,1144261
72,1144434
72,1144614
72,1144790
72,1144958
72,1145123
72,1145290
72,1145466
72,1145641
72,1145818
72,1145996
72,1146163
72,1146328
72,1146495
72,1146672
72,1146853
72,1147032
72,1147218
72,1147393
72,1147561
72,1147731
72,1147904
72,1148083
72,1148260
72,1148436
72,1148606
72,1148772
72,1148941
72,1149114
72,1149294
72,1149471
72,1149646
72,1149819
72,1149983
72,1150148
72,1150317
72,1150495
72,1150672
72,1150840
72,1151006
72,1151169
72,1151329
72,1151498
72,1151670
72,1151845
72,1152013
72,1152171
72,1152337
72,1152497
72,1152655
72,1152823
72,1152994
72,1153163
72,1153326
72,1153486
72,1153654
72,1153824
72,1153997
72,1154176
72,1154358
72,1154534
72,1154700
72,1154872
72,1155046
72,1155222
72,1155399
72,1155574
72,1155745
72,1155907
72,1156070
72,1156242
72,1156412
72,1156581
72,1156755
72,1156928
72,1157091
72,1157251
72,1157416
72,1157583
72,1157745
72,1157902
72,1158056
72,1158213
72,1158369
72,1158534
72,1158716
72,1158906
72,1159091
72,1159275
72,1159460
72,1159641
72,1159819
72,1160015
72,1160203
72,1160384
72,1160559
72,1160735
72,1160911
72,1161084
72,1161271
72,1161457
72,1161632
72,1161804
72,1161976
72,1162150
72,1162323
72,1162505
72,1162685
72,1162857
72,1163025
72,1163192
72,1163362
72,1163529
72,1163701
72,1163880
72,1164050
72,1164214
72,1164375
72,1164544
72,1164718
72,1164891
72,1165070
72,1165250
72,1165417
72,1165587
72,1165758
72,1165938
72,1166117
72,1166293
72,1166476
72,1166646
72,1166812
72,1166984
72,1167164
72,1167343
72,1167517
72,1167694
72,1167860
72,1168022
72,1168185
72,1168359
72,1168542
72,1168720
72,1168896
72,1169068
72,1169236
72,1169410
72,1169587
72,1169772
72,1169950
72,1170118
72,1170291
72,1170458
72,1170623
72,1170799
72,1170981
72,1171156
72,1171324
72,1171492
72,1171656
72,1171820
72,1171995
72,1172176
72,1172358
72,1172531
72,1172703
72,1172880
72,1173055
72,1173236
72,1173420
72,1173607
72,1173782
72,1173951
72,1174125
72,1174295
72,1174466
72,1174642
72,1174816
72,1174978
72,1175139
72,1175305
72,1175473
72,1175645
72,1175821
72,1175997
72,1176165
72,1176326
72,1176489
72,1176664
72,1176837
72,1177009
72,1177181
72,1177355
72,1177523
72,1177688
72,1177863
72,1178046
72,1178221
72,1178399
72,1178568
72,1178736
72,1178900
72,1179068
72,1179251
72,1179427
72,1179598
72,1179771
72,1179943
72,1180111
72,1180279
72,1180461
72,1180637
72,1180807
72,1180974
72,1181137
72,1181302
72,1181467
72,1181640
72,1181816
72,1181986
72,1182151
72,1182311
72,1182472
72,1182634
72,1182798
72,1182970
72,1183143
72,1183307
72,1183474
72,1183643
72,1183817
72,1183995
72,1184173
72,1184359
72,1184533
72,1184698
72,1184870
72,1185045
72,1185220
72,1185396
72,1185578
72,1185746
72,1185910
72,1186076
72,1186246
72,1186426
72,1186601
72,1186775
72,1186947
72,1187111
72,1187281
72,1187452
72,1187632
72,1187811
72,1187983
72,1188158
72,1188324
72,1188486
72,1188657
72,1188835
72,1189012
72,1189187
72,1189361
72,1189532
72,1189704
72,1189879
72,1190060
72,1190249
72,1190426
72,1190597
72,1190771
72,1190944
72,1191124
72,1191307
72,1191496
72,1191676
72,1191846
72,1192026
72,1192201
72,1192380
72,1192564
72,1192749
72,1192926
72,1193094
72,1193267
72,1193441
72,1193613
72,1193793
72,1193971
72,1194141
72,1194306
72,1194475
72,1194646
72,1194823
72,1195002
72,1195177
72,1195352
72,1195518
72,1195685
72,1195864
72,1196040
72,1196219
72,1196394
72,1196567
72,1196734
72,1196895
72,1197065
72,1197242
72,1197416
72,1197589
72,1197761
72,1197932
72,1198102
72,1198276
72,1198457
72,1198633
72,1198806
72,1198975
72,1199144
72,1199306
72,1199472
72,1199653
72,1199826
72,1199993
72,1200157
72,1200318
72,1200482
72,1200646
72,1200810
72,1200982
72,1201147
72,1201303
72,1201459
72,1201616
72,1201776
72,1201939
72,1202108
72,1202281
72,1202447
72,1202608
72,1202769
72,1202936
72,1203105
72,1203277
72,1203459
72,1203632
72,1203798
72,1203962
72,1204129
72,1204306
72,1204481
72,1204659
72,1204840
72,1205005
72,1205169
72,1205336
72,1205510
72,1205685
72,1205855
72,1206034
72,1206203
72,1206361
72,1206527
72,1206701
72,1206877
72,1207051
72,1207228
72,1207398
72,1207562
72,1207729
72,1207900
72,1208081
72,1208257
72,1208427
72,1208600
72,1208764
72,1208925
72,1209093
72,1209267
72,1209440
72,1209606
72,1209768
72,1209935
72,1210092
72,1210252
72,1210423
72,1210602
72,1210777
72,1210941
72,1211108
72,1211275
72,1211439
72,1211608
72,1211779
72,1211951
72,1212115
72,1212275
72,1212443
72,1212609
72,1212782
72,1212963
72,1213143
72,1213326
72,1213492
72,1213667
72,1213842
72,1214018
72,1214197
72,1214372
72,1214545
72,1214710
72,1214875
72,1215049
72,1215222
72,1215397
72,1215571
72,1215741
72,1215903
72,1216065
72,1216239
72,1216413
72,1216586
72,1216759
72,1216932
72,1217098
72,1217261
72,1217433
72,1217612
72,1217790
72,1217968
72,1218138
72,1218306
72,1218467
72,1218631
72,1218809
72,1218985
72,1219153
72,1219323
72,1219492
72,1219660
72,1219829
72,1220008
72,1220189
72,1220363
72,1220532
72,1220697
72,1220864
72,1221029
72,1221201
72,1221385
72,1221560
72,1221728
72,1221897
72,1222071
72,1222249
72,1222427
72,1222615
72,1222797
72,1222966
72,1223134
72,1223302
72,1223478
72,1223656
72,1223838
72,1224019
72,1224187
72,1224353
72,1224523
72,1224698
72,1224872
72,1225047
72,1225226
72,1225391
72,1225554
72,1225720
72,1225895
72,1226072
72,1226249
72,1226429
72,1226601
72,1226767
72,1226940
72,1227113
72,1227294
72,1227470
72,1227642
72,1227814
72,1227979
72,1228143
72,1228316
72,1228495
72,1228672
72,1228843
72,1229015
72,1229178
72,1229341
72,1229510
72,1229686
72,1229865
72,1230034
72,1230202
72,1230372
72,1230539
72,1230711
72,1230891
72,1231076
72,1231251
72,1231417
72,1231592
72,1231759
72,1231926
72,1232101
72,1232278
72,1232452
72,1232616
72,1232781
72,1232947
72,1233111
72,1233284
72,1233459
72,1233635
72,1233798
72,1233958
72,1234127
72,1234298
72,1234469
72,1234643
72,1234818
72,1234987
72,1235150
72,1235319
72,1235493
72,1235668
72,1235849
72,1236027
72,1236202
72,1236368
72,1236535
72,1236719
72,1236902
72,1237072
72,1237242
72,1237410
72,1237568
72,1237725
72,1237895
72,1238071
72,1238249
72,1238425
72,1238597
72,1238772
72,1238944
72,1239128
72,1239317
72,1239498
72,1239681
72,1239855
72,1240032
72,1240208
72,1240390
72,1240579
72,1240758
72,1240935
72,1241109
72,1241286
72,1241460
72,1241642
72,1241831
72,1242011
72,1242181
72,1242352
72,1242530
72,1242707
72,1242887
72,1243076
72,1243251
72,1243422
72,1243592
72,1243769
72,1243950
72,1244132
72,1244321
72,1244497
72,1244664
72,1244835
72,1245006
72,1245184
72,1245363
72,1245543
72,1245720
72,1245885
72,1246053
72,1246228
72,1246411
72,1246591
72,1246768
72,1246945
72,1247111
72,1247273
72,1247441
72,1247623
72,1247800
72,1247971
72,1248147
72,1248316
72,1248480
72,1248651
72,1248828
72,1249011
72,1249189
72,1249360
72,1249533
72,1249699
72,1249875
72,1250057
72,1250241
72,1250417
72,1250587
72,1250760
72,1250928
72,1251097
72,1251276
72,1251461
72,1251636
72,1251805
72,1251981
72,1252151
72,1252324
72,1252503
72,1252687
72,1252866
72,1253035
72,1253209
72,1253387
72,1253566
72,1253753
72,1253937
72,1254119
72,1254285
72,1254452
72,1254627
72,1254802
72,1254980
72,1255158
72,1255334
72,1255501
72,1255671
72,1255851
72,1256032
72,1256214
72,1256396
72,1256576
72,1256751
72,1256922
72,1257107
72,1257288
72,1257471
72,1257663
72,1257847
72,1258026
72,1258201
72,1258390
72,1258576
72,1258757
72,1258937
72,1259114
72,1259282
72,1259460
72,1259650
72,1259837
72,1260020
72,1260197
72,1260378
72,1260556
72,1260732
72,1260922
72,1261103
72,1261281
72,1261452
72,1261627
72,1261804
72,1261983
72,1262174
72,1262357
72,1262529
72,1262701
72,1262873
72,1263048
72,1263229
72,1263418
72,1263602
72,1263772
72,1263939
72,1264108
72,1264276
72,1264441
72,1264607
72,1264776
72,1264938
72,1265097
72,1265261
72,1265435
72,1265616
72,1265795
72,1265982
72,1266161
72,1266333
72,1266507
72,1266686
72,1266874
72,1267054
72,1267231
72,1267402
72,1267561
72,1267724
72,1267894
72,1268072
72,1268250
72,1268425
72,1268603
72,1268772
72,1268941
72,1269117
72,1269302
72,1269480
72,1269646
72,1269820
72,1269986
72,1270154
72,1270331
72,1270511
72,1270696
72,1270870
72,1271042
72,1271216
72,1271389
72,1271574
72,1271758
72,1271945
72,1272128
72,1272305
72,1272489
72,1272672
72,1272858
72,1273046
72,1273234
72,1273408
72,1273587
72,1273766
72,1273948
72,1274134
72,1274317
72,1274500
72,1274672
72,1274845
72,1275020
72,1275195
72,1275377
72,1275555
72,1275730
72,1275896
72,1276061
72,1276236
72,1276417
72,1276596
72,1276782
72,1276969
72,1277147
72,1277325
72,1277513
72,1277699
72,1277884
72,1278063
72,1278239
72,1278409
72,1278577
72,1278761
72,1278940
72,1279114
72,1279287
72,1279457
72,1279625
72,1279792
72,1279970
72,1280153
72,1280331
72,1280506
72,1280674
72,1280843
72,1281012
72,1281187
72,1281372
72,1281551
72,1281723
72,1281890
72,1282065
72,1282235
72,1282410
72,1282599
72,1282776
72,1282948
72,1283116
72,1283287
72,1283462
72,1283638
72,1283825
72,1284007
72,1284182
72,1284354
72,1284526
72,1284709
72,1284891
72,1285075
72,1285259
72,1285433
72,1285606
72,1285784
72,1285967
72,1286149
72,1286336
72,1286518
72,1286688
72,1286860
72,1287037
72,1287219
72,1287396
72,1287572
72,1287746
72,1287906
72,1288070
72,1288240
72,1288419
72,1288594
72,1288767
72,1288943
72,1289111
72,1289272
72,1289441
72,1289625
72,1289807
72,1289987
72,1290165
72,1290337
72,1290503
72,1290676
72,1290854
72,1291036
72,1291206
72,1291377
72,1291548
72,1291712
72,1291881
72,1292061
72,1292241
72,1292416
72,1292585
72,1292761
72,1292930
72,1293100
72,1293280
72,1293465
72,1293642
72,1293812
72,1293986
72,1294161
72,1294337
72,1294518
72,1294701
72,1294881
72,1295047
72,1295218
72,1295389
72,1295559
72,1295737
72,1295913
72,1296090
72,1296256
72,1296418
72,1296595
72,1296773
72,1296951
72,1297133
72,1297314
72,1297487
72,1297655
72,1297832
72,1298013
72,1298189
72,1298362
72,1298536
72,1298704
72,1298869
72,1299041
72,1299223
72,1299400
72,1299580
72,1299755
72,1299928
72,1300094
72,1300263
72,1300450
72,1300626
72,1300797
72,1300964
72,1301128
72,1301292
72,1301450
72,1301612
72,1301772
72,1301920
72,1302064
72,1302203
72,1302341
72,1303029
72,1303167
72,1303298
72,1303428
72,1303559
72,1303695
72,1303831
72,1303971
72,1304122
72,1304280
72,1304432
72,1304581
72,1304732
72,1304891
72,1305056
72,1305226
72,1305401
72,1305580
72,1305750
72,1305919
72,1306089
72,1306272
72,1306456
72,1306645
72,1306831
72,1307007
72,1307186
72,1307370
72,1307561
72,1307746
72,1307935
72,1308120
72,1308292
72,1308463
72,1308632
72,1308810
72,1308987
72,1309162
72,1309344
72,1309516
72,1309688
72,1309868
72,1310048
72,1310233
72,1310417
72,1310595
72,1310756
72,1310918
72,1311091
72,1311281
72,1311461
72,1311638
72,1311818
72,1311992
72,1312160
72,1312334
72,1312519
72,1312702
72,1312864
72,1313018
72,1313169
72,1313316
72,1313458
72,1313607
72,1313757
72,1313908
72,1314055
72,1314197
72,1314345
72,1314492
72,1314639
72,1314797
72,1314957
72,1315125
72,1315292
72,1315457
72,1315628
72,1315782
72,1315984
72,1316171
72,1316354
72,1316533
72,1316702
72,1316879
72,1317059
72,1317236
72,1317426
72,1317609
72,1317786
72,1317958
72,1318136
72,1318320
72,1318502
72,1318692
72,1318875
72,1319051
72,1319222
72,1319396
72,1319574
72,1319751
72,1319929
72,1320104
72,1320278
72,1320450
72,1320628
72,1320821
72,1321006
72,1321196
72,1321376
72,1321555
72,1321731
72,1321916
72,1322113
72,1322296
72,1322481
72,1322659
72,1322837
72,1323011
72,1323194
72,1323384
72,1323565
72,1323733
72,1323889
72,1324040
72,1324188
72,1324336
72,1324495
72,1324655
72,1324813
72,1324967
72,1325119
72,1325274
72,1325427
72,1325580
72,1325739
72,1325899
72,1326047
72,1326186
72,1326327
72,1326470
72,1326615
72,1326761
72,1326910
72,1327067
72,1327221
72,1327370
72,1327521
72,1327676
72,1327838
72,1328002
72,1328169
72,1328348
72,1328519
72,1328688
72,1328858
72,1329038
72,1329228
72,1329414
72,1329603
72,1329783
72,1329955
72,1330129
72,1330313
72,1330503
72,1330687
72,1330878
72,1331061
72,1331232
72,1331410
72,1331598
72,1331783
72,1331965
72,1332149
72,1332322
72,1332492
72,1332668
72,1332854
72,1333037
72,1333213
72,1333390
72,1333561
72,1333727
72,1333904
72,1334080
72,1334260
72,1334432
72,1334597
72,1334769
72,1334932
72,1335093
72,1335266
72,1335447
72,1335620
72,1335783
72,1335953
72,1336123
72,1336294
72,1336472
72,1336653
72,1336837
72,1337008
72,1337184
72,1337361
72,1337542
72,1337733
72,1337917
72,1338102
72,1338279
72,1338457
72,1338639
72,1338826
72,1339016
72,1339205
72,1339386
72,1339561
72,1339742
72,1339928
72,1340108
72,1340289
72,1340469
72,1340647
72,1340819
72,1341000
72,1341186
72,1341374
72,1341558
72,1341734
72,1341905
72,1342071
72,1342248
72,1342427
72,1342603
72,1342781
72,1342951
72,1343118
72,1343278
72,1343439
72,1343616
72,1343793
72,1343961
72,1344128
72,1344300
72,1344468
72,1344641
72,1344830
72,1345018
72,1345196
72,1345371
72,1345542
72,1345715
72,1345886
72,1346069
72,1346247
72,1346414
72,1346582
72,1346748
72,1346916
72,1347081
72,1347252
72,1347433
72,1347607
72,1347771
72,1347940
72,1348121
72,1348289
72,1348451
72,1348617
72,1348775
72,1348924
72,1349070
72,1349213
72,1349361
72,1349512
72,1349661
72,1349816
72,1349976
72,1350128
72,1350277
72,1350436
72,1350601
72,1350773
72,1350950
72,1351134
72,1351316
72,1351486
72,1351663
72,1351844
72,1352027
72,1352212
72,1352398
72,1352579
72,1352751
72,1352923
72,1353096
72,1353282
72,1353460
72,1353641
72,1353822
72,1353995
72,1354175
72,1354363
72,1354557
72,1354745
72,1354930
72,1355110
72,1355283
72,1355429
72,1355652
72,1355848
72,1356033
72,1356214
72,1356393
72,1356571
72,1356751
72,1356931
72,1357116
72,1357287
72,1357454
72,1357625
72,1357793
72,1357972
72,1358152
72,1358338
72,1358515
72,1358686
72,1358861
72,1359033
72,1359216
72,1359403
72,1359586
72,1359758
72,1359929
72,1360103
72,1360275
72,1360449
72,1360630
72,1360816
72,1360988
72,1361157
72,1361338
72,1361515
72,1361693
72,1361872
72,1362055
72,1362230
72,1362399
72,1362586
72,1362776
72,1362958
72,1363143
72,1363327
72,1363503
72,1363678
72,1363862
72,1364050
72,1364233
72,1364416
72,1364595
72,1364768
72,1364943
72,1365128
72,1365312
72,1365491
72,1365667
72,1365840
72,1366007
72,1366170
72,1366347
72,1366526
72,1366702
72,1366881
72,1367054
72,1367228
72,1367403
72,1367591
72,1367780
72,1367957
72,1368132
72,1368300
72,1368469
72,1368630
72,1368793
72,1368963
72,1369134
72,1369300
72,1369467
72,1369648
72,1369831
72,1370016
72,1370218
72,1370413
72,1370592
72,1370769
72,1370955
72,1371140
72,1371325
72,1371515
72,1371695
72,1371864
72,1372037
72,1372217
72,1372398
72,1372578
72,1372768
72,1372944
72,1373112
72,1373282
72,1373462
72,1373641
72,1373812
72,1373987
72,1374152
72,1374311
72,1374475
72,1374640
72,1374821
72,1375002
72,1375183
72,1375358
72,1375521
72,1375693
72,1375872
72,1376056
72,1376240
72,1376422
72,1376601
72,1376764
72,1376931
72,1377106
72,1377293
72,1377473
72,1377654
72,1377838
72,1378014
72,1378189
72,1378372
72,1378566
72,1378751
72,1378929
72,1379112
72,1379289
72,1379468
72,1379658
72,1379851
72,1380038
72,1380214
72,1380395
72,1380569
72,1380749
72,1380933
72,1381113
72,1381282
72,1381452
72,1381630
72,1381807
72,1381993
72,1382173
72,1382352
72,1382517
72,1382673
72,1382838
72,1382998
72,1383161
72,1383336
72,1383516
72,1383694
72,1383866
72,1384042
72,1384225
72,1384409
72,1384598
72,1384786
72,1384965
72,1385137
72,1385315
72,1385494
72,1385675
72,1385859
72,1386038
72,1386212
72,1386382
72,1386557
72,1386741
72,1386925
72,1387111
72,1387290
72,1387467
72,1387641
72,1387816
72,1388001
72,1388182
72,1388361
72,1388537
72,1388714
72,1388883
72,1389058
72,1389244
72,1389427
72,1389607
72,1389779
72,1389951
72,1390120
72,1390292
72,1390479
72,1390656
72,1390828
72,1390997
72,1391166
72,1391333
72,1391505
72,1391692
72,1391873
72,1392043
72,1392212
72,1392385
72,1392560
72,1392738
72,1392929
72,1393119
72,1393303
72,1393480
72,1393663
72,1393846
72,1394027
72,1394221
72,1394406
72,1394576
72,1394742
72,1394913
72,1395092
72,1395271
72,1395453
72,1395633
72,1395803
72,1395974
72,1396144
72,1396318
72,1396495
72,1396674
72,1396852
72,1397022
72,1397195
72,1397366
72,1397548
72,1397729
72,1397915
72,1398099
72,1398269
72,1398442
72,1398621
72,1398809
72,1398991
72,1399174
72,1399355
72,1399522
72,1399688
72,1399863
72,1400046
72,1400225
72,1400400
72,1400577
72,1400748
72,1400914
72,1401082
72,1401260
72,1401439
72,1401607
72,1401776
72,1401939
72,1402103
72,1402275
72,1402454
72,1402637
72,1402811
72,1402978
72,1403149
72,1403315
72,1403491
72,1403670
72,1403851
72,1404025
72,1404196
72,1404371
72,1404547
72,1404723
72,1404912
72,1405104
72,1405282
72,1405452
72,1405633
72,1405807
72,1405979
72,1406153
72,1406332
72,1406504
72,1406667
72,1406840
72,1407016
72,1407192
72,1407374
72,1407553
72,1407729
72,1407896
72,1408068
72,1408243
72,1408423
72,1408609
72,1408794
72,1408974
72,1409148
72,1409327
72,1409510
72,1409693
72,1409877
72,1410053
72,1410229
72,1410398
72,1410572
72,1410756
72,1410933
72,1411115
72,1411294
72,1411467
72,1411634
72,1411806
72,1411993
72,1412177
72,1412360
72,1412540
72,1412719
72,1412892
72,1413071
72,1413260
72,1413445
72,1413629
72,1413806
72,1413979
72,1414147
72,1414321
72,1414506
72,1414684
72,1414857
72,1415028
72,1415197
72,1415368
72,1415544
72,1415731
72,1415911
72,1416084
72,1416256
72,1416432
72,1416606
72,1416785
72,1416977
72,1417160
72,1417341
72,1417514
72,1417695
72,1417881
72,1418067
72,1418263
72,1418446
72,1418620
72,1418795
72,1418975
72,1419154
72,1419332
72,1419518
72,1419696
72,1419862
72,1420033
72,1420211
72,1420392
72,1420578
72,1420765
72,1420941
72,1421110
72,1421282
72,1421464
72,1421647
72,1421824
72,1422008
72,1422178
72,1422342
72,1422507
72,1422673
72,1422851
72,1423024
72,1423199
72,1423381
72,1423552
72,1423724
72,1423904
72,1424094
72,1424276
72,1424455
72,1424633
72,1424806
72,1424982
72,1425165
72,1425355
72,1425535
72,1425710
72,1425885
72,1426054
72,1426230
72,1426416
72,1426608
72,1426795
72,1426974
72,1427155
72,1427329
72,1427510
72,1427697
72,1427888
72,1428068
72,1428243
72,1428422
72,1428598
72,1428783
72,1428971
72,1429159
72,1429333
72,1429504
72,1429677
72,1429844
72,1430016
72,1430183
72,1430352
72,1430516
72,1430675
72,1430843
72,1431014
72,1431191
72,1431377
72,1431563
72,1431738
72,1431909
72,1432086
72,1432270
72,1432455
72,1432641
72,1432830
72,1433007
72,1433176
72,1433356
72,1433536
72,1433717
72,1433898
72,1434075
72,1434248
72,1434415
72,1434588
72,1434767
72,1434942
72,1435121
72,1435291
72,1435455
72,1435616
72,1435784
72,1435964
72,1436147
72,1436332
72,1436515
72,1436696
72,1436872
72,1437057
72,1437253
72,1437442
72,1437631
72,1437813
72,1437997
72,1438176
72,1438365
72,1438556
72,1438738
72,1438920
72,1439094
72,1439270
72,1439446
72,1439628
72,1439813
72,1439991
72,1440162
72,1440331
72,1440505
72,1440678
72,1440859
72,1441043
72,1441217
72,1441387
72,1441556
72,1441730
72,1441900
72,1442075
72,1442266
72,1442445
72,1442616
72,1442791
72,1442971
72,1443155
72,1443340
72,1443533
72,1443716
72,1443891
72,1444071
72,1444260
